,Lookback,Z,VZ,Bending,Breathing,density,BendingM2,BreathingM2,densityM2,DM,Gas,DM_out
0,6.323181769898123,0.40034080695958385,12.516313763419934,11.128234767885402,1.321448866531988,1898.7040798460996,3.3886447080139517,4.47579547313302,982.9375793727298,16.756434773008767,32.15997566255906,15.02460987237973
1,6.296819541234349,0.44330889961716713,11.6962091127631,10.270909959671622,1.782410895429022,1804.642441419072,3.8441311466059758,4.869721083700068,852.8719112540615,16.79414660566645,32.15964816729888,14.782946796825504
2,6.257021370782392,0.4728261364312549,9.530486333918807,8.908915816394744,1.7035892913806983,1764.5520878239972,3.8828468324880125,4.759341312793563,594.043123536854,16.679418917824325,33.914341860940766,11.063159809591804
3,6.198067183682968,0.41229607251534806,9.15473179423445,8.888304362160767,1.0262235626081395,1547.4774945671736,2.109812858348548,4.75583569722083,722.0044284763062,16.28513054133537,31.589696432366,11.477299916350303
4,6.166826674452982,0.3765353799510893,9.749548978505462,9.00414097415671,1.5554130868568534,1439.1527763307515,2.6141359638243533,4.752972471684717,941.5094933698244,21.79052253070202,32.103800667047494,8.625561539604357
5,6.133891202463207,0.3374190124020791,10.451296774951775,9.452415189264462,1.5862283826768921,1339.4246301270564,2.420226613902089,4.561274300387001,1125.77640598186,18.010780519371572,32.35650226356146,6.433261878736441
6,6.100719280344513,0.321792198713082,10.451661767915507,9.826777461165166,0.9964555134329661,1351.9203578677605,3.225637173970837,4.218538746133158,985.6390400881388,17.67175493834155,27.942394019603043,5.755149075088826
7,6.067346103953526,0.3493223727564773,9.862603836833603,9.63078159753904,0.8748037292794049,1576.468695483963,3.913002646262906,4.187463863406775,783.055769388439,21.72650870846805,37.51099729267435,5.7807440115348365
8,6.032072868913223,0.3764607617149709,9.004292971051594,9.201043281245575,1.0388019028671565,1791.0877168285792,3.881201137287566,4.433606370687899,729.9736506310076,19.391650736003513,38.97102862825497,5.169456766290357
9,5.9948320266449295,0.35510638848167514,10.170979346504854,9.812206304935486,1.291472147415496,1879.4473360657673,3.4430368901037447,4.09240500331841,715.22899017823,19.883607390857186,39.060716185305616,7.241618315450473
10,5.957324003606695,0.35710265493181215,10.726285295968706,10.19244791056612,1.2742166064884521,1934.7882125698336,3.505122346140195,3.731073450942838,704.7584200026979,17.940169735728723,37.29437313511924,7.535626024875549
11,5.9365639909968575,0.37409590537878723,10.20129285020868,9.664641689195701,1.214102066386189,1908.6603214111237,3.8917019471197847,3.665715661885828,725.8428839152481,17.225999618525627,36.7895971583058,7.174192511928791
12,5.894811696137233,0.387202886594321,8.409759451166794,7.8546194197051,0.9135678396130906,1571.421656460115,4.629766941889235,3.634321820182302,696.7577775124108,15.12672796036413,36.44201908223358,6.579897690113315
13,5.85272746861963,0.3310410849150156,7.302515960115974,7.367608392379514,1.1904222164268703,1181.493005732535,4.414039611029615,3.833661986447903,522.8518872528056,11.303148466991322,25.54502182338372,5.564355769962661
14,5.829423163299706,0.3038791898510292,7.3651787202110786,7.836961670509835,0.8512265303387887,1001.5944649666075,3.7839661341063158,3.6879094531332584,429.29257597408616,10.060247101632685,31.698904603115842,5.126788405711982
15,5.806019824366869,0.29903269327756793,7.468419981614242,7.984533277409487,0.6061656032023213,902.3202583719354,3.1451527864634286,3.574242224633932,494.7470989040486,10.624288567929725,37.24380575991109,3.714534161041844
16,5.758847580686567,0.3558074580993921,6.697631470056078,7.4727475442664915,0.7123501049008145,944.7523678339406,2.448345488060033,3.7100940083000693,753.2049335385937,12.54113468330347,44.81717789865426,3.287850834615939
17,5.735113676933862,0.366773940564482,6.4565618109457095,7.245129665087115,1.1280324591276878,1001.0582239481522,3.278829301613962,3.930327504247013,764.5741738828958,9.385575115080792,40.38187728387907,3.428161561896722
18,5.687351268637958,0.3613163733133288,6.658704458499936,7.377080031001363,1.16299127768073,1213.352468757852,3.8305601459279592,4.029909000977999,746.6170398765873,10.820356305588922,38.585755260178985,4.05728507955057
19,5.674282004200253,0.35343941873433593,6.958943441014123,7.597871858044613,1.2895824604582375,1241.2813605633905,4.0298400602412645,4.092812685119496,714.4134111168038,9.277148507830377,40.18546083180743,3.6701033153391105
20,5.63487750476342,0.3338570190644482,7.724829393382163,8.130296019753116,1.0270908222897033,1239.8971038959342,4.437000471146739,3.9664384764072858,702.0075605771669,10.237847907235473,35.85649661715444,4.780008068280008
21,5.607096887071627,0.335742301408622,7.6355048070267575,7.724057328985388,1.1934035000059517,1214.214520217308,3.960917326625554,3.9926885269882186,724.390421839997,11.732563121067912,40.74937399274509,5.303596885236251
22,5.563197273837341,0.30410145190947063,6.757173202498386,6.881438332243599,1.7304250388942453,1236.3262460352862,3.0734780181478296,4.194239624907433,690.3602860746212,10.727894167673359,36.217527324354904,5.060322555770878
23,5.532228479342441,0.26342913687270375,6.409292243352374,6.7052446743117,1.7273669034682968,1176.3861911173728,2.753175387742454,4.613484501727739,643.0297861596434,11.15496028710721,28.736233552534184,4.525473008258899
24,5.499580009312712,0.2463785941240423,6.066285542225043,6.042584855690171,1.5522639571629218,1077.31063983914,3.301092762149645,4.251920196513565,692.9498184980764,13.0765163683512,27.48958918245337,4.2987832137663915
25,5.4667717357004335,0.2469137377147823,6.274529189962278,6.11420032087675,1.3923379912374982,954.9238114345098,3.1006717361474534,4.496630816928767,596.5473223417741,8.241886824281393,31.59917674593986,4.323094973667113
26,5.432045810452904,0.2617220061503661,5.95928335434514,5.759522244834139,1.2410750328365272,1000.5827984357163,2.1733696684381405,4.158194220499392,584.3251801839903,10.090710051316613,38.14291412844446,5.370933537134782
27,5.395473989249358,0.24659118487988016,5.791589668075864,5.38578681741544,0.8358138362866491,1052.777989896016,2.042374864474529,3.8323041483116826,628.0263687133086,10.64957503501538,32.4241858466855,5.725235663940513
28,5.377073878453867,0.23691787742216977,5.76012568395951,5.360671729215335,0.6587959296046324,1073.9609821657439,2.08320216585942,3.867142709783203,651.0422857544363,9.692683406260022,31.088006641664734,4.541692884206303
29,5.338220697323426,0.23965939433185715,5.805024423583516,5.367620242548078,0.7716737270222045,1094.9078345797548,2.7124487597035367,4.064237698104348,555.6772397425374,7.4391081870592,29.097558643415972,4.665701141875299
30,5.297253698952362,0.22769349266854938,6.177728498836492,5.915655572057608,1.239826730606295,991.5230432467317,3.004322933634216,3.802417184779712,573.9806729146034,8.257145781825525,24.045425325378403,5.058432640762297
31,5.276641111204341,0.20787545522858303,5.8874509599574605,5.719625315786004,1.4144474102578415,961.604919601217,3.0973245176607396,3.8619675932933637,673.7029401836601,8.941719237122776,29.526359487609994,4.750519258424745
32,5.235158502612744,0.2039626035011614,5.146410598721046,5.072979100884773,1.3484088253208506,1021.4702064137164,2.8630948705016883,3.9713222680150317,815.0654158749223,7.025818723833867,32.44972142026327,5.4382138691036985
33,5.214323161439596,0.19992440040375098,4.91126247777107,4.8490124738149385,1.2002159156796808,1118.9158985619406,2.7635169386430527,3.6861949151931817,756.9488949747138,5.036826238330413,33.28870574171747,5.32064395549704
34,5.170266337889607,0.1942846202285688,4.826807232884355,4.560725052013721,1.2909013651237005,1090.4616236942961,2.2806588324992485,3.6980110505673487,457.6087515644922,4.820054742421499,34.690685713345225,3.6924389344876403
35,5.147046563163453,0.19839495794941825,4.744097642393508,4.582224605272811,1.2012747465842972,1112.6487233816556,2.533391423428717,3.597271929976815,521.1261994890681,7.547300390450607,33.81007539649558,5.616703209072735
36,5.100322315894825,0.18059925115988018,4.74186243634516,4.911008827924266,1.2630892489390064,1196.822902931425,2.7283026294454156,3.6458948110427216,473.8389506188382,9.793100609044837,40.230488411055504,3.3643851010455466
37,5.076783952863184,0.19754240513079593,4.7314645622327465,4.970130607707278,1.3139648615078128,1190.7182234653606,2.8389325423352645,3.567879207960492,560.2513400458629,9.611394404193973,36.7062265221843,4.037818099109885
38,5.024693916499314,0.20997967943225518,4.316415765581583,4.685000525750924,1.056140088501125,1260.1646382293352,3.029518677441399,3.811808544241822,488.8569094167994,13.105079355573336,44.62968558345827,4.1267735531100795
39,4.9984422681030605,0.2105040612732174,3.872151173728227,4.166942177327058,1.0039338720002196,1180.1861058400257,2.738190345387923,3.8442686754400315,514.1304173855358,8.346155927919845,43.59060696544966,4.402698883170504
40,4.972098961617661,0.20785519903391264,3.712221157699976,4.045807892637855,0.9326450914513733,1120.0264679700776,2.917559743572183,3.6763127089155034,650.4144806826264,13.45673612324207,36.75467582094519,5.01265284414915
41,4.945595796763422,0.19963372480499011,3.7351755021096595,3.8499290998316615,0.8251553310998752,1118.6571494964805,2.8981286604218575,3.7860287948165956,716.4649249973687,13.907654466938261,30.3765518739254,4.158455262965091
42,4.892248159980066,0.17465759914805393,4.210421833916892,4.0387383336029155,1.2517845705123043,1268.9946991736665,2.5109528349286054,3.561006255526152,658.8726188734452,6.611006365052355,30.773458454287624,3.0294705138861393
43,4.862669314823597,0.18914122815888584,4.635139984777913,4.527081418529243,1.3219540786592705,1349.7059838788875,2.345990058132247,3.6313234868559947,672.7501980975916,8.354473588260243,31.245948219733926,3.647509209339182
44,4.8487228759760965,0.19211722091477815,4.601102605292524,4.6874187730343575,1.2549787176136808,1364.6501533228072,2.495674756330658,3.5032995552998307,676.3611946576217,6.624351303295657,31.980665704183416,3.5084530799424827
45,4.806664730570148,0.1869028472041181,4.333826699547599,4.59747955626633,1.0912322990395065,1369.276589510357,2.8266097941418495,3.4118396808990084,610.4414477991281,8.331099631613046,29.71331872120348,2.7122903188902505
46,4.778461168590125,0.18719369995407348,4.184972695844638,4.300849841556078,1.1570834569856634,1423.8303858777008,2.3867395859577796,3.7665970410549505,601.069176482131,9.31146343783721,28.520413442637146,4.049651126157783
47,4.720187077902779,0.1824644895366762,3.534809009912363,3.8628580334875657,1.1169416215035026,1490.731629031788,2.697397046185265,3.883969869935092,450.8364801202367,9.2837131690476,25.249770585273172,4.004351575794896
48,4.622237616993765,0.1157711782628387,1.9475010945382134,2.5317382559752737,1.2368894442409282,1879.5066775969076,3.017160420437535,3.3098010865358374,587.0684813708348,5.439295467665701,24.15321067299746,3.264155134362552
49,4.577088592204344,0.12517549751688714,2.3155967062278373,2.617734495952387,1.093973357582518,1837.209953603458,2.4464477220901437,3.090323343070894,652.3918958687315,7.349219944869547,26.45372139827591,3.595583098258502
50,4.5521323230353365,0.13615928417288972,2.4466995421366313,2.764309077861982,0.9212845848392981,1678.1359517043093,2.189481826617884,3.183402337591602,684.291839260821,9.634368004398304,30.48924009057479,5.053732611619252
51,4.501814915026364,0.1360926755704109,1.7768932527887358,1.9734220491459553,0.8210573924449165,1449.2010701217716,1.4337308087294351,3.353686246271304,620.8520860850509,11.61994233761011,24.795461744756068,6.93848618101575
52,4.48942163564651,0.13941816697990483,1.7426090348234502,1.790256193488076,0.81374720110059,1471.9014784856085,1.1510952934557994,3.399968271448318,570.5750451878108,11.328117089769426,24.748877635382804,6.750768059813679
53,4.451988877090199,0.11430209045248851,2.188167239096477,1.9771079695959677,0.7319936960791819,1368.4743849119945,1.6221069757677937,3.8762681752649,514.4645397880256,12.018905888804465,20.580252367885688,8.828219056861046
54,4.425636673797183,0.090073995187086,1.9863836610164758,1.7571161853274109,0.929404151054079,1354.8701817811957,1.9228932834684571,3.9002738516317548,534.3790594516777,13.98334340538695,22.28487658154323,7.737262281729498
55,4.384017668022734,0.10060869920279103,1.899744806603967,1.5223251546898653,1.2147903301362337,1447.208197608813,2.8320772110576367,3.8551591140498935,565.9188896802843,9.460702478392669,27.86899361570756,7.363551408872178
56,4.356077168016793,0.10674993483773809,1.6171499311793422,1.1831386121755783,1.0673502546855822,1496.3436129439692,2.9042503974083393,4.279125561258068,580.189193064209,15.52253110220489,27.66766771564202,7.833279124002482
57,4.328017673411098,0.11167941424710462,1.4364203926466843,1.3628136858296163,1.3375430470051117,1494.2755978400303,3.261618562675495,4.2218648174186955,588.0435810367552,18.10562498416811,30.766682122770632,8.192110561083506
58,4.282832647088027,0.10477873056061446,1.3084735199008495,1.4589341766102193,1.2806299606530822,1324.3574686708214,3.1410888297668302,4.410889600462544,530.5041694278931,11.883688956429944,33.892140243482785,6.79981516992025
59,4.251573740401522,0.10037242917715224,1.2996745231668838,1.3407490808156515,0.9503324684851983,1157.9145273097838,3.4580549705342407,4.573854378280796,467.00162762518914,10.214319735892756,26.85799286887657,7.620049224720519
60,4.218546832503941,0.09365450791265248,1.5560483170082398,1.316945071200602,1.087275596015366,1077.6866199315414,3.121081667219124,4.708906602362878,393.47316892783704,11.222229250583293,26.026924624641524,7.794081741219442
61,4.1837560100917885,0.0831844974793747,2.173987863225791,1.9945475915552149,1.2466905708169091,1140.5498658021245,2.2029144315099756,4.589932090525747,542.9954012553608,8.692352706006305,25.734253243274555,8.916340797543704
62,4.166252624258076,0.08524594307427419,2.196013272892996,2.0253705957771584,1.3083121180145576,1182.5674869329462,1.9264173288327977,4.4933240612337855,627.3997338615497,17.102895675498797,22.347462023504463,8.904643546163923
63,4.129379642199092,0.10498443540405403,2.0049556714745482,1.9274479254803676,0.9039050413542874,1370.2553348453087,1.7428420652754508,4.5081576309728755,566.75446347867,16.657622121095123,17.646307133865946,9.932516265225697
64,4.090517576788267,0.11584191686319456,1.782144721596881,1.6792952452595067,1.2018842113731194,1488.1802900883617,1.766337341142615,4.546341991789454,557.901880745284,22.267646697287244,28.15226946970088,14.810942475423854
65,4.051387253346471,0.09796803897046512,2.1368439028184,1.839475180831996,1.1565785554127943,1497.1578220408114,2.146010047454683,4.651857358807898,569.8493181636774,16.174831624794994,39.61137881626352,12.259317918898507
66,4.031717654255528,0.08939931801809119,2.0450624658718506,1.8767464060737176,1.0393962661181537,1470.7317942084057,2.4299177740460403,4.519720177303585,610.1351104251929,15.106301043003969,41.817180425080444,11.085413629841181
67,3.9921703326700086,0.08824028927132603,1.7695472738947082,1.5788160457012863,0.7881929497798656,1431.4747560962958,2.823370260118332,4.392176704164694,556.9350177388874,7.74586936105911,29.133789181675134,10.0486836323735
68,3.9703123977296446,0.08840193881307168,1.5428371586975618,1.6514672268806638,0.8749847649395479,1377.4229202177182,2.838492223079926,4.314618863896641,445.5158795424588,11.089402712075847,25.862874249407415,9.342718409265569
69,3.9263621640915054,0.08007359181244407,1.3887186456237104,1.3586273931854769,1.062092879283257,1237.1897688519027,2.429231657077168,4.108122362466339,348.9354837552629,15.032445001616788,29.47017584620775,9.870737209063721
70,3.904236747925157,0.07237615080266654,1.3692023252758017,1.3711907211541055,1.157178484744722,1273.3459416194924,2.5020055775933967,4.287879992538365,313.48576005372564,14.593039737342382,32.85439423642478,9.109163090503845
71,3.8597869359163535,0.08254371272377362,1.7200597137402323,1.7717437091541832,1.1852667862869624,1278.708049778547,2.54585927360819,3.847601084915991,389.03051000118916,13.576414469467082,33.90468209373649,8.773386364236023
72,3.837429450196413,0.08823806859971675,1.9672343430784136,1.8613424237199172,1.2614720397826606,1289.8344126776158,2.4595153102364513,3.703076221889596,472.83404476745164,12.685375924029568,35.948087047640435,9.0045770366982
73,3.79021115421336,0.09938706701944677,2.2655855332892365,2.0208080168262668,0.7673255791039209,1451.3539759042465,2.660221876326316,3.580864656863439,499.60556386799107,9.247320397572542,40.29642245599927,9.479236580031241
74,3.765320039697933,0.11082123018676163,2.1811931543485725,1.9228364585758648,0.8366744806813177,1526.7378633001576,2.4402288751510595,3.2899920713521835,515.1295732561687,10.776721200901935,38.85699145447262,9.290869026126844
75,3.7403442402838434,0.10684501524997,2.3533770942086827,1.9634213944629564,0.7724739528403621,1573.3844094909641,2.389146852093787,3.25063700786047,471.2383247489967,10.874385874271129,39.067581940017675,9.48771080453566
76,3.6900396490094094,0.09624936792486115,2.227120954365534,2.132427698393793,0.6671363193031798,1449.8976304696369,2.1157712192276485,3.17989254152243,454.106551266899,17.733165692716632,38.638699265655035,8.539893075499357
77,3.6647448434540313,0.09260111963936375,2.025079038110696,1.967527036584108,0.780108958748909,1401.5583256343375,2.3369899211881937,3.215939589370658,547.8098221476773,10.341630655268629,36.186074551914224,7.270077963556621
78,3.6393332294665535,0.09136637070080864,1.9597001162050354,2.0720408938054566,1.0180048920025722,1433.045456657233,2.5791545651821717,3.154407853129293,619.1448580047713,9.278712688674357,31.65625785061203,6.935446616347822
79,3.611243287317557,0.09328899602319514,1.881621588429406,2.1838108961860936,1.1318631751106594,1510.2883022237922,2.803460567658778,2.977906292171977,728.9583815580329,11.670561219949962,31.33313617031567,8.188574680389227
80,3.5830408109660965,0.10004721269011527,1.6561447847722388,2.1758357632362375,0.910769475213565,1639.9394834072893,3.0096740893887004,2.9330742356893063,831.1222895639912,14.821899121635834,38.49777661275043,7.846242716545629
81,3.5406764130714983,0.09775591326959696,1.5115238431908078,2.1559626659745605,0.6290107592403581,1689.0744474133182,3.2171201384166253,2.5191514510236623,817.5843525866624,15.081652601580618,39.763696939161,7.6139267619343505
82,3.5122938050100214,0.11192223378406863,1.435187520505847,1.9388400505453354,0.9481156944977526,1658.495304924462,3.0661187817942834,2.357410987834503,699.9432059746263,14.719684215022879,33.98553084828048,8.430601470097104
83,3.480915262767496,0.10659822600371768,1.5790874445719392,1.6789691492975596,1.2896433234854274,1616.5601218850275,2.5633142655143835,2.510274933251612,484.3397453831987,15.08525288554706,32.996141893191634,7.586449014480977
84,3.4493642568072502,0.0762483176036081,1.940646775392133,2.038037266236259,0.9204320367122047,1659.746363410492,2.408894801564289,2.8547728061110256,396.4362756750003,15.204231058447053,37.67805403848094,7.541973771646926
85,3.4176414378115427,0.06873859402879792,1.902558155999099,1.898851761105211,1.0493496379748024,1654.9254803964661,2.556417341537948,2.863713278124264,558.912320368983,19.422680472524426,36.76956432276604,7.624174064334868
86,3.384160105599035,0.08044500728578238,1.433001319440518,1.7695006552780022,1.3476289267840311,1627.4579173236502,2.522050821447744,2.786210118068238,635.5529197185091,20.173264249092284,30.0084582149067,7.370896344323522
87,3.3488592409068514,0.0765324411177466,0.9807119981081092,1.2728443087429098,1.1757977245339226,1645.5335912005946,2.2635080953396534,2.9926373972241063,595.8331984363952,14.277267371447332,25.621121572095436,7.421987214406811
