,Lookback,Bending,Breathing,density,BendingM2,BreathingM2,densityM2,DM,Gas,DM_out,DM_inner
0,6.323181769898123,15.568215720166927,0.7176471364507677,630.3586484714712,2.3469907542038166,4.321764249684058,771.6549250879258,11.622985772852639,46.94785455193234,13.953236496067348,37.599660922573754
1,6.296819541234349,14.812412135324507,1.6511408546098632,610.9716234521106,2.6519033929005316,4.5010712585934645,552.7476691648071,12.718629819134055,41.61794768347083,13.900633257295667,55.124626852266076
2,6.257021370782392,14.246503840069312,2.021780155693903,607.3265398072657,2.663239995007173,5.042677804819645,445.67577485083973,9.83474371245678,44.23265085565673,7.933173097705318,49.283205008383646
3,6.198067183682968,15.30770577713119,1.1893676958529744,526.4068131657484,2.851498681250566,4.820310813320683,444.5263979296693,9.031166793836574,40.20009608090671,8.576539044615625,47.662651470042704
4,6.166826674452982,15.446856418006846,1.1370105375804032,520.5907216398025,3.5710929357383847,5.00876901326413,761.8215335106913,11.395801656903744,45.06992516451554,6.455692347900062,55.79738547169309
5,6.133891202463207,14.777607817311445,1.3983088062512523,377.9340782571436,3.4911219539241927,4.801580721249079,877.9914212446068,13.15692131226254,43.928021553837596,5.961029886913706,33.760911481103015
6,6.100719280344513,14.834929581427897,1.0330486170950703,522.7621705909605,4.129402321490554,4.322246950211588,644.3092012096208,6.632526210364679,37.8955008008765,4.9946646945244995,38.618976496218885
7,6.067346103953526,14.715350347439047,0.681493574436359,831.0914396150814,5.159108546092542,3.785172936138129,381.3485198886106,8.160028142599696,55.86673756648247,4.399817756844486,48.18300966550994
8,6.032072868913223,12.738469039204144,1.0719818346137002,933.268066976439,4.289451615419947,3.683737444532222,346.3688685487339,14.456291539038672,57.013307825792644,4.271527653706763,23.29744278569009
9,5.9948320266449295,12.08886847733972,1.0872797841279709,881.4724988234439,2.8429404819324544,3.0305488060979244,480.8919795400344,12.485795785201876,53.82179630682303,6.187715032153408,17.706203627069723
10,5.957324003606695,12.024635339834106,1.147365315663259,831.3622291097657,1.7816052713682695,2.2717943119762,546.3375148579659,11.315718947115029,50.06486036644218,5.560148612994369,65.79309568551862
11,5.9365639909968575,11.101142110058813,1.1212988353581261,692.262282552783,1.5942616261759184,1.97897373805857,500.5863882080686,14.57334780358095,49.93521330994405,7.473841611663929,35.34153864557788
12,5.894811696137233,10.036309355954504,0.9749243835285629,426.9670184259111,2.70254212916985,2.488952263373228,377.68019446984624,12.469585416958003,50.60490775352506,7.432513345703499,27.712071616379397
13,5.85272746861963,10.108195854074385,0.9288283814293866,390.11119360098775,4.4305404078377,3.1603881720502836,327.3387461192488,15.69482121257526,32.243378483378876,7.045804338419274,25.41780226046342
14,5.829423163299706,10.483487701703538,0.8161932836173029,387.117547833445,4.219947653358579,2.7464126718534554,403.65138033486653,13.242391818920012,42.594927310794944,6.304864002682286,28.80777231862553
15,5.806019824366869,10.832553602143753,0.692563227428921,463.073960032192,3.615059464161503,2.8172146314580333,433.74306631693327,13.849642491475631,49.53210188412834,6.808050842596421,35.382003293079265
16,5.758847580686567,8.751058607204433,0.6647912417828035,643.064215610057,3.2952810370208523,3.5657560531162487,506.0821006267212,13.196058854699602,59.5610446762207,6.136607633459162,47.64874648815085
17,5.735113676933862,7.766001145942046,1.1778125902788745,806.2794313281117,3.853151167417021,3.8532993811429335,417.5257759822754,13.764277009100962,49.96825350253307,5.756822729510344,37.62186975076681
18,5.687351268637958,7.80674790157767,1.0723648851654501,871.448980524837,4.341536543803445,3.9058619928989833,553.4753177240661,19.309398839642437,49.15532186770949,6.008703629730978,53.04222025330935
19,5.674282004200253,7.8291827339050055,1.3825799276543247,814.2226101977219,4.334966708476005,4.2650421319098015,512.028354930529,19.681255126628084,53.19375465546171,5.614050168397305,44.518064615523905
20,5.63487750476342,7.9849100889432405,0.958122625058303,717.3091175812624,3.549446951107984,4.292416336817959,440.784371202255,15.186473895489243,47.464799882471866,5.920973915207373,60.67547947605367
21,5.607096887071627,7.467187846529862,0.9584304236051461,631.945998546464,3.1068259850117563,4.4144838306387815,410.7590245672815,16.904429219181672,56.30649684791836,6.377877352158009,51.8586233878433
22,5.563197273837341,5.678301299226879,0.8848083855860244,559.5430022456012,3.0646013254173057,4.36129480422902,405.15167191704654,17.054861304033768,50.33622170956214,6.7160338505460375,36.19517952800482
23,5.532228479342441,6.149287092282708,0.9781760476630149,581.5056244655152,2.626905064643794,4.67760489230474,477.8544010785066,19.11504969539021,40.0168100758799,6.195357404207887,33.62373913866438
24,5.499580009312712,6.753534603432944,0.9844780120887545,640.141070865268,3.2449316306837153,4.213823614172735,580.3023991753148,20.430614832840263,38.260769636160695,6.391496020758559,52.54859361794707
25,5.4667717357004335,6.852442201686796,1.011125517596013,706.8076707163274,2.986134611277449,4.6607574631157975,477.48484709779586,14.529861794937688,47.14227107854512,6.538283430654631,44.83450730088785
26,5.432045810452904,5.6355434136954425,0.953713272694333,693.753244301883,2.138663636092744,4.633987414215445,361.4888013379645,17.091159094860135,54.788284509881954,6.792740789121411,28.87952225764643
27,5.395473989249358,4.885974404147436,0.5435378413521408,663.6306662690457,2.1318373010459566,4.449404725118226,253.96753769391165,19.639883088776035,40.73332719694173,6.579990505789758,48.75188582473641
28,5.377073878453867,5.045678697892794,0.4815931034364655,629.4138076174922,2.3846297835328074,4.563792117880486,312.4569899955674,15.251854389270541,40.67224253691768,6.537320047767908,66.40580089337035
29,5.338220697323426,5.551689823705558,0.5381346169074798,596.8788067688135,2.5176854810547935,4.523215253041661,439.66542182452815,10.663684685753761,39.023574545245026,5.552864444932112,32.93816922343114
30,5.297253698952362,5.354573365083246,0.9638598104918366,512.7824144327367,2.7358812007919617,4.49754318655033,460.03251731064836,11.118870340987941,33.35536343655668,6.992672249116708,57.94518833281178
31,5.276641111204341,5.523465262458155,1.052918853362859,546.0025674054446,2.7960273072400725,4.6708602810954885,519.7946145026033,10.889270153096259,40.89366536524023,7.4412591796242555,27.625094405664118
32,5.235158502612744,4.970060744296439,1.2210593666334046,520.2070636595074,2.3552057477171795,4.601171255423116,745.6332144973258,5.751121971098785,49.30700094336785,5.867438722108895,41.57833827084545
33,5.214323161439596,4.786782302550408,0.9676197319084437,567.0253652197424,2.667393469055882,3.955118290307793,631.1891510302572,10.293308790636507,47.356010819674644,4.757096917116728,49.670032874491305
34,5.170266337889607,5.411718054886182,1.3129348903680924,505.7898048520732,2.5475612007624076,4.39368633352097,200.0412391939288,8.2159890508862,50.95654886954474,5.525463867243595,23.039738790596612
35,5.147046563163453,4.835391568336236,1.114564279113283,486.96003041425683,3.115926356064361,4.11370587516553,240.8470509669939,10.511420629599089,49.853507831918165,6.109617097601907,48.162074344896034
36,5.100322315894825,4.158481679501293,0.6246086418198822,637.3799656077483,3.3336252261674937,4.332724818611919,227.3766558649621,8.294984835615187,59.235036969583,3.254419185963965,43.8795780835043
37,5.076783952863184,4.704439967320261,0.8778600568829047,545.1368265056743,3.350313171430694,4.059549884772091,254.56575701931018,14.856525346981206,53.16565531822378,3.9514369916496923,27.9251287804554
38,5.024693916499314,4.670777998439755,0.8168548761766683,598.1677845125419,3.3752047508887686,4.347581775259997,184.81045910071057,11.99336198338064,70.74556185365647,6.027708448260023,51.45191480219583
39,4.9984422681030605,3.9678249932728114,0.8469021339639842,542.6418953028988,3.2269450604371728,4.404675962261882,189.48173058859783,9.742693081746301,67.7081255168101,6.572508487166336,43.59793629610636
40,4.972098961617661,3.9847670657980885,0.8132656149165062,437.8943170148424,3.037450302188902,4.13913055154849,351.88265883978664,15.715822760675508,58.441876268109084,7.2379745684019685,55.223786419059245
41,4.945595796763422,4.552576440148345,0.753418475667291,455.2002258897892,2.599906121795462,4.240302233092093,417.17410616328414,9.418271319595284,51.52760937416272,5.602503304780541,44.94185848973775
42,4.892248159980066,5.192571726766412,1.2406186517455062,465.39977245710395,2.014478893356922,4.175689798167379,507.9471235486752,7.165359311154614,50.37579189215022,3.9865926710107513,36.97667179082935
43,4.862669314823597,4.329233018759019,1.1660261987734488,496.35237737848473,2.283573236147186,4.29191132972583,445.17338344425264,9.46602047402003,51.21598752113301,3.6224957438578684,53.54274242117034
44,4.8487228759760965,3.5385093549115725,1.1692512905260852,520.8125853934584,2.6654160002898903,4.331412254919579,431.24322981563836,6.665542612627929,50.68636008547997,3.626433799711573,46.883898374002946
45,4.806664730570148,3.9867972616957537,0.8940141633657074,543.2941017729389,3.4447662235644088,3.961989235502112,518.5230745895187,6.953273044336235,43.31970809471165,3.3153862082641963,40.356697546298136
46,4.778461168590125,4.609737296875098,0.8169359808603053,536.0089448258323,3.004286609128992,4.275034463777482,543.1572313989587,8.854149919246032,42.34718019558802,3.130171265587374,20.445249255148003
47,4.720187077902779,3.3389030537088105,1.0220508356986715,536.0562654860687,3.405911691663313,4.179522564559881,312.2557727068076,5.793995669595319,38.59462709169873,4.108597179055907,61.82806362175773
48,4.622237616993765,2.9062820622836454,1.2121724266504348,906.1433389772503,1.3010233592954263,3.8298969906443374,307.76196763423513,7.2645462541649435,35.65295204437473,2.9331922389372864,34.40036198400071
49,4.577088592204344,3.059139177645974,1.3430147047352634,717.4599229024733,1.3384638782191547,3.62904911558905,406.61390493998425,8.077857409704027,39.05611948418756,2.596440557840388,58.6609994020251
50,4.5521323230353365,2.78382795624794,1.1083605770906069,502.27786834747656,1.3009346004917517,3.7265020593476095,474.95144954553837,8.361624033811065,45.926031412583654,3.4255852163630034,59.36004213866377
51,4.501814915026364,2.7991544610365997,1.077018303363897,277.48772684358966,1.6653433274424678,3.8168068900130465,439.0331562882232,8.544696114107543,37.47336272046554,5.7722078551375455,50.69888569463151
52,4.48942163564651,2.5590219075242273,1.0946856997222159,397.99096682385635,1.4225050280777616,3.917348592623111,412.25869681473887,9.7997769798214,37.493209990490584,5.960943127273542,41.734448720076195
53,4.451988877090199,2.2183021856081826,1.0198870781618707,405.7435381560426,2.0177188694720316,4.482744770136236,458.46195583510007,8.14836200910865,32.46763901606916,6.567892612145835,24.78732793412073
54,4.425636673797183,2.297036509022371,1.3638076546007487,527.7888006132788,1.8352024529144793,4.922525453770219,398.75617318601763,13.599253163121391,35.53899699658545,7.612197284512576,46.475950992098156
55,4.384017668022734,2.0202828469824294,1.3926575122421696,711.9276161909778,1.9901781058802306,4.730954285098888,397.35448082749025,7.989472806294493,46.00666338234085,5.864361188162618,33.68344169213197
56,4.356077168016793,1.52929242053909,0.8518257129486942,779.1320841475048,1.5586605269488374,5.119998282241643,362.54715339632975,11.726769151762158,48.28442264101455,7.3021184286841025,46.452469743582306
57,4.328017673411098,1.5168181585403953,0.9672366685170595,773.1169009101475,2.128080650304654,4.877862449462475,417.882140481388,16.70520948532226,51.79360921565085,6.662671930908403,51.60598885353882
58,4.282832647088027,2.0493644549289574,1.059792285453469,579.6570464559338,1.4739120646234412,5.1668653608618955,419.7899963449032,9.680486766576289,55.6926042245623,5.528352803373075,70.52449855665381
59,4.251573740401522,2.4262669663677765,0.6066300288337778,386.1630974960146,1.482596517746082,5.324055642002362,347.5814585000239,9.00578305475814,43.84926704564672,6.1781103916320275,41.340683204591315
60,4.218546832503941,2.2127757446959913,0.9051402139618302,347.2226223745712,1.322875562583333,5.347242371953809,293.3102730190853,6.953154137140301,41.604101568053174,6.879496857739253,12.076779703956728
61,4.1837560100917885,2.149526410407234,0.9730719088798656,520.0866845821573,0.8251208325063942,5.412652399667486,352.9853973782424,6.360880081960295,37.53161600781954,7.480813668605757,32.355266710899464
62,4.166252624258076,1.93982604270975,1.0342532613148367,645.3080626216994,0.8595125930159793,5.4751029620525085,438.15351852053016,11.33586762400889,29.937752042663888,9.227162184291926,42.657193239275536
63,4.129379642199092,1.6130689783893328,0.6796704444818071,952.7794332285812,1.0716478623601369,5.550301407722053,509.0441817270813,12.290405574728961,24.002752652549496,11.071545091341736,44.280184448044395
64,4.090517576788267,0.9094455233601192,1.2819265151133565,1071.628335936536,1.222727523667609,5.70740214781218,463.9753269902177,13.217654483639885,41.95839539352025,14.910481652005817,47.22254873491709
65,4.051387253346471,0.9438483811797728,1.2239418265952406,1033.1680012574045,1.685512925117391,5.7421631082620035,351.1361056434912,12.961136445743406,62.540141829892605,11.499395066523126,31.808938904849796
66,4.031717654255528,1.1726652986707753,1.0494533491446383,973.5013491698273,1.8486403199490649,5.648668504733357,434.19577361175004,12.072620000008387,65.52422079160424,10.24014375823105,38.51333477832868
67,3.9921703326700086,1.2235981391263882,0.8676727688732336,898.6196165626667,1.7483288379859647,5.265652630573152,464.4496543088264,6.9049776451656495,46.22227538303359,8.571717851548785,25.08788368173835
68,3.9703123977296446,1.4502520936507934,0.9579203212842714,756.779526103753,1.9815646155122657,5.117497754978355,410.65588977098423,10.692755925201489,39.28352749960782,8.146767737337951,33.24870285432556
69,3.9263621640915054,1.5580414244828569,1.023456821559989,525.6211790916234,1.2729246061547534,4.583694952569532,274.37518013690755,8.232134587311515,47.189476991981515,8.67498392830653,41.59947104559226
70,3.904236747925157,1.9020661485649388,1.2173314857125843,672.6821160542534,1.4803607661943492,4.707828968766837,282.5762148671395,8.053698757288473,51.4691944377731,7.301355242468085,38.76779790741094
71,3.8597869359163535,2.131997014945436,1.3581929020543528,1032.543245753755,1.5627475904654147,4.056955604697573,280.98581538641577,8.622180260105933,49.954568345850866,6.828973405334847,55.832164173015876
72,3.837429450196413,2.3703505973856838,1.5294207572296785,1129.5869339913256,1.3485779671957183,3.8650228777402127,364.9122061362949,9.62002567713921,55.96321484123452,7.497002596904866,41.62221529992318
73,3.79021115421336,2.173728033688384,0.6628386516394812,1329.9129778924819,1.7243024768806958,3.6952871987423004,322.26334676723286,8.3032172055814,62.28858688688624,8.074352056775815,42.670666569479074
74,3.765320039697933,2.0217484557359304,0.8298902250519905,1324.5463062849115,1.7409375986928104,3.313288699240302,413.0239106214538,6.152027567393198,60.55344306814554,7.895242381060149,53.794122779108925
75,3.7403442402838434,2.0750565209447416,0.8016455965622612,1264.2177869080508,2.1786609725405315,3.3085734020350572,419.3155677708457,10.816319395318388,60.69595218577471,7.904140002287557,42.15203375135051
76,3.6900396490094094,3.094739716448274,0.7632097904551653,1035.9063170766833,2.1843647071538888,3.3429558884439468,435.48533868655034,11.965783752625615,59.19639893362459,7.414809219847201,53.08380296019576
77,3.6647448434540313,2.9596139901932017,0.8672027992358464,984.0271390189777,2.0814581330499466,3.356357537820825,385.80452342667377,10.144288927061547,56.75863536863179,6.498195584664547,50.60246413290026
78,3.6393332294665535,2.9702480398193183,0.7838491416779285,1057.5529292544693,2.1156349492062994,3.330515040968433,435.1691751746521,6.7046778536950375,49.534715608985756,4.9126280453400915,36.694797468464664
79,3.611243287317557,3.1630818674104035,1.2291032425524997,1143.9093658837533,2.145409068350116,3.2336336986223784,545.5306230078058,6.355680119899483,50.87969501509147,5.962196028426139,37.014168806587165
80,3.5830408109660965,3.6042506666360787,1.190797119697978,1314.6087778007638,2.0842604007648537,3.195259629360568,643.2218511388885,7.166299770723434,58.1789039416879,6.763414841623679,44.35544558083752
81,3.5406764130714983,3.7131835574114236,0.7496812051263138,1379.3697714421323,2.19813656026434,2.740737242808676,659.6821876568126,8.733933566859966,57.583782264341735,7.909021754298285,41.20777539610772
82,3.5122938050100214,2.955328930607501,1.0417928153109786,1346.9814435104356,2.3105201815213205,2.723409867942728,542.1840592006215,8.972995892040057,46.431102037288625,7.237743817777539,69.1598850855998
83,3.480915262767496,2.445085729051411,1.2123907240681355,1321.443290148748,1.9545591456760305,2.7032297574844764,383.26429233981327,13.197047668532258,47.896166260071574,7.772069061136044,43.79875239548109
84,3.4493642568072502,2.6709459352355878,0.856211667945567,1378.6920023110222,1.9893095870988735,2.888133481596507,375.2420880971072,10.157365694282444,58.90811215438392,6.779574431953536,54.923776430045606
85,3.4176414378115427,2.876737659941437,1.1337469090736794,1281.5910914080964,1.9070098877400892,2.815994389742527,479.7295977147384,12.870120153446255,60.341825950474764,7.353885448078559,54.35889258030702
86,3.384160105599035,2.9907144756435575,1.212148782251248,1252.5364376676134,1.9220771381576482,2.9476530892999806,532.8095460242325,13.553136634692006,51.74590275845078,5.293728540120052,44.120123084486416
87,3.3488592409068514,2.9800295583551377,1.0304385557794726,1362.8883632848206,1.7475948246352953,3.2351618314469603,538.7187686294991,9.393156347179511,39.85964000182744,3.773378786425301,32.55616245167426
88,3.313394622547607,4.088685189562414,1.1949676493553145,1374.9386122324988,1.651550293448762,3.612030824617635,432.80010859950636,7.641904726190081,44.99003439754694,5.229829479385225,48.41407273110808
89,3.2955764075645178,4.467613189033189,1.1682996671759613,1343.5110436725104,1.5351764380718955,3.722711156194296,338.15767173401923,11.544738682224928,43.542363618293635,7.8420668767750135,37.58444611168684
90,3.2597687795980548,4.582685953994769,1.1303395836035004,1268.591226898079,1.783186944448201,3.789499924451518,411.88534018364146,11.129940331141597,39.53469934735865,6.880783581902264,55.74237068306924
91,3.220194766662841,4.327020671145437,0.7872546201846424,1358.9819353909327,1.855136261482133,4.414936880899822,688.5657156131161,7.978660717109736,36.74701104741092,5.333789087656108,42.2658778386991
92,3.2002516129970497,4.097430464604441,0.6276609637269306,1444.316972043433,1.7753215254157255,4.3688883389740525,724.1105575043912,9.611725082014027,35.7108007375638,5.794594536374992,57.012453473956406
93,3.1602677614677805,3.63076256595901,1.110916605041878,1339.6033505973126,2.068697384817823,4.672905253905638,655.7153652843838,9.27662278749455,31.174999985736605,6.161577319543745,46.634325957297364
94,3.1200013903966006,3.630905360698454,0.8466034231226679,1313.9747054924874,1.5949919762430231,5.050800927420539,631.6407112443484,12.651079408688593,34.81447867433734,5.579310879796587,52.485897707905096
95,3.099787303245713,3.657368407705566,0.6479546945417344,1283.252555708608,1.74541456314258,5.09872042144081,651.9446890578956,6.824288828733471,40.66999342209804,5.447117157919384,55.81129312673664
96,3.032536332071169,2.441562825150881,1.1277032548387043,1046.7436963872508,1.3125710751472088,5.636540643484581,594.1306082227115,11.870346363255523,37.12796878840904,4.10692675138424,67.96220219419807
