,Lookback,Bending,Breathing,density,BendingM2,BreathingM2,densityM2,DM,Gas
0,6.323181769898123,23.12766974234454,1.9481410841576632,3037.449576259911,4.962496229608786,4.8695485025267855,1463.8352210495511,7.746236972114404,20.102603387953657
1,6.296819541234349,22.48952283097722,2.224013910426445,2932.887823805731,5.485578575638825,5.40099322774387,1194.0860779207774,11.334759351380209,25.378337602270634
2,6.257021370782392,20.7103969180413,1.66741965000618,2889.252926276987,5.432371261219927,4.836846835780456,788.3788187694968,9.45691793724571,26.819619663173675
3,6.198067183682968,20.032205169162317,0.7206990360408847,2466.7871128875095,2.798467254779588,4.63252788646944,1412.8902182876375,7.944482000212601,24.991220373095555
4,6.166826674452982,20.240812296300255,1.4488821299259418,2344.4970178641997,2.7929871717888703,4.73535336150559,1644.1066788261717,9.10976302982282,24.739453448030584
5,6.133891202463207,21.15699228705136,1.18202053505621,2306.596188515502,2.1275685201212298,4.424018221177598,1834.8237758414593,11.510383916667616,24.47228728846275
6,6.100719280344513,20.598733103625403,0.9234146277435042,2129.014884696596,2.68646580907027,4.191269305355614,1687.5577463840104,9.720946904094836,22.228676831410432
7,6.067346103953526,20.032762089085985,1.1836637607495664,2201.602281010824,2.923943452761807,4.5861956360242155,1331.9467936643953,8.441067788662014,22.117935208155878
8,6.032072868913223,19.823749043516365,1.3445215885642887,2514.445368585794,3.9339227054940267,5.416026441570867,1227.810463823629,7.352715650556002,25.07725350264702
9,5.9948320266449295,19.69822008068861,1.0058671981132978,2738.5013367684505,4.421667311441302,5.146980663916361,1135.7345106124726,12.198837955408763,26.12601740979113
10,5.957324003606695,19.615923313115985,1.290915836998969,2895.154610064704,5.736251273910257,4.998570622037723,1163.1876110853116,7.986525467024889,23.778123020796087
11,5.9365639909968575,18.417182093318292,0.9080467094700992,2989.9426362862296,6.599030501356983,5.333809187847908,1216.3283325767402,12.537556531995252,25.07621371205443
12,5.894811696137233,15.757655293146632,0.9508554832742077,2669.0741128633867,6.998162445322665,4.837073316593544,1244.292190827573,14.345594625477043,22.71542930956412
13,5.85272746861963,15.341128700601454,1.166063066795882,1933.4468365969988,5.043193504083719,4.625961339301223,867.0150092060569,14.636895642893881,20.765842439863064
14,5.829423163299706,15.070234408259314,0.9788848859286,1588.038778984283,3.88927428545229,4.7038161643732455,591.626637093751,12.655215658519971,23.471608703293995
15,5.806019824366869,14.939713850324017,0.5827551035415336,1331.3509851130145,2.94811908637467,4.372055597685212,567.8231327969114,16.950344490522433,27.37743680978477
16,5.758847580686567,14.454731077381297,0.7216112999130004,1292.9971411700362,1.678957616798666,3.978141441077234,975.2660426838935,13.771008705963755,31.602176256337696
17,5.735113676933862,14.265595501838508,1.0188255172803342,1264.1149019953252,2.6974738386897146,3.9751109540605625,1115.9769049522445,12.479309318262327,31.3380115201946
18,5.687351268637958,14.35655595618304,1.3253434434250675,1578.8207472933814,3.56068022328905,4.059253460844083,1008.8109750138956,14.631351580138904,28.29717267773199
19,5.674282004200253,14.683904775238187,0.9977776760881583,1671.3832499587988,3.8147107458585396,3.8295446061041942,969.4246037351191,13.582046172987635,28.070637116372804
20,5.63487750476342,15.016381643779317,1.0408271574876853,1754.3593655542577,5.488182254913913,3.559040934985552,1016.6942992197253,12.931169195703621,25.980344178078013
21,5.607096887071627,14.157245220697295,1.1744439291949538,1732.6979454261098,4.951198801327568,3.680930326850278,1050.9342354666342,13.977746065540337,26.199562895972313
22,5.563197273837341,14.209581876976173,2.385500799337415,1884.9229741957865,2.8152100749524256,4.210069953481854,972.3053427150747,12.765741326593337,24.03360837307101
23,5.532228479342441,13.572465254488185,2.527067485934846,1731.1749458866645,2.7463289318817465,4.416890585052789,855.9446890050073,15.834383473513832,22.357085785913764
24,5.499580009312712,11.589421887844779,2.0152872717778556,1470.9622755799596,3.360852526126339,4.143822833529325,911.3164167202169,15.460734021111785,19.23030321841881
25,5.4667717357004335,11.508258241452749,1.6829413802116284,1175.8644143699926,3.3922187097470533,4.20410897987942,830.9452634070949,14.084958919670292,19.058563112849974
26,5.432045810452904,10.648542520692821,1.522049903381387,1283.5327187572088,2.5680645301933684,3.4712007537350162,889.5318545306061,14.585233955639415,24.27842280210802
27,5.395473989249358,10.506736889225456,1.1269037914163953,1382.2809703356584,1.966951499961955,3.235070851085861,1037.0252939810835,11.51554874657501,24.937869252090195
28,5.377073878453867,9.974211476254009,0.9230733179947734,1464.6806589093417,1.899543342658688,3.02934169352864,1013.8813861660898,11.817123384385168,23.75737081746746
29,5.338220697323426,9.70922609608077,0.9238648478496749,1531.9467711727584,3.1124050025884147,3.407325206622157,679.7784200282151,10.797216615874335,22.099282045214522
30,5.297253698952362,10.417378021226833,1.5853936798094472,1426.4935967188896,3.6526282675359845,3.126668675356741,696.8664506993933,10.37348596514135,18.079847057271916
31,5.276641111204341,10.523385156089294,1.8029791288706487,1340.401150396467,3.388013688870754,3.060803775378626,858.5499673921992,11.725952353044843,20.632706912990496
32,5.235158502612744,8.919752058248967,1.515079407052531,1512.0142116652528,3.419858156978563,3.2549828884778953,872.59071091698,5.862530995055586,19.07074336621371
33,5.214323161439596,8.366243790967598,1.4363420034983454,1601.552665149301,2.9692962055191034,3.3080367439247835,842.3401603334096,6.332603457968246,20.521311590769887
34,5.170266337889607,8.243846811457576,1.2457567879766183,1611.139843174829,2.0876417849682634,3.043571217473585,674.6497638703856,10.121229688197623,19.70254777746508
35,5.147046563163453,8.387948259768022,1.385228678951232,1713.1155367563358,1.9893460802893397,2.996795924191152,793.1274926951571,8.928959769703775,19.35497003741777
36,5.100322315894825,8.504377985370201,1.9326927693270768,1760.9312640341614,2.1760034192758186,2.9450068209970515,698.0803638141185,4.675359424657568,20.444731345615125
37,5.076783952863184,8.380973761814664,1.744487350247639,1834.9657828327279,2.328786676347145,3.0493844100672596,865.8670061859427,7.697891273494207,20.606826772552516
38,5.024693916499314,8.182723226991019,1.3666029369795212,1921.520808844117,2.8070410241408816,3.2677704786966153,815.4127212581885,11.662662469068847,21.29782254802839
39,4.9984422681030605,7.638846977260471,1.3571726492990366,1823.975157280321,2.3319128806364042,3.3501553860067426,869.3063463448996,12.936286444787726,20.72851669020676
40,4.972098961617661,6.913871395626687,1.1313677369382271,1806.5617575289168,2.833632513629243,3.2857172701267694,1007.0930208495807,13.785444001022075,16.680079173900207
41,4.945595796763422,6.369188740414084,0.9879824807373287,1765.396978566925,3.3207614406578165,3.4766564689212616,1054.1649619990117,10.500291498590334,10.93480198694058
42,4.892248159980066,7.286936155303097,1.2068554316624136,2062.578361900482,3.0814199530506343,2.843983387277013,834.1338455465414,5.979286852110826,10.460834421459348
43,4.862669314823597,8.160666906792548,1.485855582384639,2177.707952573857,2.4887775199311952,3.0005304685719,906.3711689699643,6.942513501591888,13.083942299847015
44,4.8487228759760965,8.63185451522781,1.3521741738741746,2191.923930754057,2.3502875136666366,2.7214161137472024,945.9940789165619,6.259013776239631,14.511828810663419
45,4.806664730570148,8.240937604619528,1.3357721130270235,2239.3467377750194,2.13490939566642,2.9309336524237937,672.3325493509194,5.746038984839777,16.361686046694835
46,4.778461168590125,7.362244290423867,1.6407922237622152,2334.978925498126,1.7635663147176477,3.4750511729467943,634.4018974408552,6.2882216688100065,16.735157509046473
47,4.720187077902779,7.035753685930347,1.1871654950402237,2435.247723860791,1.9120569876677287,3.6445206385896554,558.3705038727942,6.051189846076553,12.969028730575607
48,4.622237616993765,5.243097418366327,1.256622089730667,2857.5695475244693,4.844868446138003,2.9139502826185684,865.076113047486,5.405225768266528,16.171715923456524
49,4.577088592204344,4.231551474669105,0.8054331604741323,2937.740088730982,3.5748576513802726,2.4618336220370995,910.5171169547666,3.757318782782428,14.886230214716559
50,4.5521323230353365,3.7308625498201566,0.7755925170580522,2797.857949868603,2.96976898903682,2.736682068115047,897.9278618598788,4.0281963515694015,14.97757624715169
51,4.501814915026364,2.4386555959265004,0.5511681242280126,2581.726260640707,1.2523343835016,2.872099813198058,802.8202796493728,5.582210820790615,12.69982157974206
52,4.48942163564651,2.382199963286482,0.44364345310066966,2509.3061503335007,0.9781594027601728,2.8832283047557445,734.2502004020889,5.120065514877813,12.061462318461041
53,4.451988877090199,2.5718041817771837,0.47360717560507715,2324.174761478115,1.227548310634611,3.1845319771810017,578.5001820151928,5.28616289225602,10.791174184519106
54,4.425636673797183,2.4971322596267234,0.35464005099437057,2205.0848779950757,1.9040139349493799,2.856693157238586,664.169739258956,8.798337571979495,11.182073800017687
55,4.384017668022734,2.5596543202906696,0.9785294176424177,2184.4758435863,3.696475670089135,3.005186887259869,724.3745358667798,3.66003866624711,11.179089309357265
56,4.356077168016793,2.6086334230702817,1.200703446663674,2187.1260869446905,4.326257364832496,3.3691287235124547,795.9568279911924,8.15738235746783,10.611132524508953
57,4.328017673411098,2.821463844559633,1.666696729483386,2186.772339788089,4.5602344639261165,3.596737154030637,793.6469662825069,7.073691735310854,10.32386731454285
58,4.282832647088027,2.8976076794605192,1.4812982707990219,2046.0354318071986,4.873904480935833,3.7257043159318277,650.3615224093378,4.86365426913206,13.971480458212014
59,4.251573740401522,2.745892255742119,1.2951666206070889,1931.1082691823729,5.527610219195638,3.899686949919986,588.9953335393654,5.992349952050406,13.933740729568886
60,4.218546832503941,3.1484570641785163,1.2488339823311034,1815.2600484767256,5.002955165952239,4.0771783300416695,522.1635620465888,7.53878970146483,15.034033818109542
61,4.1837560100917885,4.037444698233439,1.5203867259009578,1779.7705502853962,3.5233950674665486,3.8054767848740125,781.5813052370365,6.2315039142919035,17.81865378534706
62,4.166252624258076,3.6658332281811936,1.5802760165136172,1761.849695005862,3.021862420612882,3.6615322511360224,842.3211128506576,13.616807853599854,18.24578782797196
63,4.129379642199092,2.6841672067343842,1.1333414520004887,1819.5253918623116,2.3447806347263533,3.3948580693346093,647.1305328474207,14.771870448781314,13.42313899208389
64,4.090517576788267,2.575398606536381,1.1352717712065474,1881.5273824766984,2.440234140944651,3.425284754955025,651.9927185488889,20.897983892566092,13.561643508995015
65,4.051387253346471,2.4943303360152353,0.994913813641541,1928.6785269799443,2.5801441514339194,3.5847738274343777,775.3446851351337,12.27767523698727,16.811098286256478
66,4.031717654255528,2.2751087484185133,1.0489542584050082,1919.5091829151697,3.035382685203719,3.3722707838578083,795.1078017367745,10.881244719092928,18.81913940673868
67,3.9921703326700086,1.5878685390359324,0.7847787679620545,1937.7557765923852,3.8168006538601382,3.4733828442539805,688.505334118485,9.633575718814308,15.563998180287374
68,3.9703123977296446,1.7336611391095293,0.8583095588442724,1974.4499117784806,3.7153096896543323,3.5176197466432297,508.0627874229079,9.255537543704447,13.453288999046766
69,3.9263621640915054,2.167301782937076,1.0892122555643227,1963.1365410228311,3.542859176545093,3.563277946437305,426.12320284012515,9.852917655606012,14.087372533813708
70,3.904236747925157,2.5209566441371236,1.1301878263188152,1894.9705522065756,3.4388453839560937,3.787237698818204,329.1215392335149,7.0519832569004635,16.29185400070488
71,3.8597869359163535,3.097850596492133,0.9575361553269797,1510.5287356290478,3.5073478722536016,3.5796460466743434,488.2664426897551,5.145649907042917,18.356571604788865
72,3.837429450196413,3.226590016756276,1.047869518884402,1438.082920066716,3.6474074223332877,3.4029516364935772,553.2202815040221,7.907082347884756,18.277142016020566
73,3.79021115421336,3.217865011421653,0.8459622252825263,1551.9279755571465,3.536141794482282,3.418227602140514,702.1092264522943,5.32339255370318,19.166493754935804
74,3.765320039697933,2.952731440762962,0.9004179851457922,1712.764424530847,3.231206910597767,3.2636192207236276,662.965504735976,6.787150148891128,20.04756294191429
75,3.7403442402838434,3.019999102544599,0.7598073512053176,1856.9290792154636,2.5850856723847024,3.2144132881788963,511.50217881601276,6.167029358717293,19.874735088932898
76,3.6900396490094094,3.400532839413566,0.6361018759565397,1812.7036381733676,2.106782941531894,2.9535299312587244,475.15692730784775,7.600003353497063,19.401866542568282
77,3.6647448434540313,3.5322472344917086,0.6469735553556146,1787.9384214675042,2.592349128282019,3.0746834872972344,726.2194683892792,7.225785251619647,17.009242254374087
78,3.6393332294665535,3.635584018880391,1.3814540165890716,1787.8850631589921,3.0471826329475,3.050630923524714,848.8759917834537,2.999425781722888,14.756478623050413
79,3.611243287317557,3.9109510655946336,1.0762519319256814,1846.7926721809304,3.448571508294075,2.6892760990350104,977.3699015477516,3.5909947993760944,14.178720577439881
80,3.5830408109660965,4.17141910124954,0.7875492789752909,1948.7312273807372,4.039405161696423,2.6544645443960118,1076.0461090061192,4.224806601821125,19.075566229483876
81,3.5406764130714983,4.103612325171004,0.4959517006569225,2007.4214664919878,4.319714539753444,2.235276705869723,948.8027720937446,10.389485813116293,23.24210406931617
82,3.5122938050100214,3.800754618799229,0.9057196791709533,1960.1423564846125,3.8770078445891487,2.038213791987695,826.4964182240143,9.448435219808452,21.5898034034585
83,3.480915262767496,2.4445019443613156,1.4162179715356014,1897.873153072284,3.2260103391423294,2.303901823688372,581.2052890482262,10.663163055925304,19.135987175693167
84,3.4493642568072502,2.3513034203434118,1.0213635624878685,1956.0148149248296,2.9312927586636803,2.8626138543971633,454.72162541108503,7.010609496367762,17.74492872864986
85,3.4176414378115427,2.3905199855206503,1.0427535305412525,2043.3823667999307,3.166433321973588,2.8784281731274595,653.7161564221143,10.927325890338512,14.950501076769683
86,3.384160105599035,2.5244174277360107,1.5861290711031164,1982.2372128459006,2.927366486588824,2.6208006224280327,765.1096572741786,7.759811045787161,11.61600081158187
87,3.3488592409068514,2.927539548951055,1.276209410900889,1882.0347458014498,2.5611043452924505,2.689537549640373,666.8701845016392,3.5604385998608308,11.299615399013497
88,3.313394622547607,2.9081789796785436,1.348195584227596,1907.8439738877682,2.168812207628793,2.7206003429929004,551.840643035114,7.635858096567188,12.487015450862453
89,3.2955764075645178,2.577857693346656,1.227323130153981,1912.3737410685383,2.300722095393158,2.5521933551650804,530.3125848011975,8.144190541207424,12.735135638357505
90,3.2597687795980548,2.129259450744679,1.2538301700960843,2162.7571919966445,2.480529389695159,2.7301099440794405,429.0973552104024,7.131397826393948,14.392165604833654
91,3.220194766662841,1.7477464646546825,0.8192265793583676,2415.965937207994,2.5400765601737536,2.9399511337754385,536.6506181026145,4.105721877784387,14.040750330364974
92,3.2002516129970497,2.2426357611554706,0.9260845856570178,2452.1146277341786,2.610819387042061,2.9456771532278694,629.4411554060304,7.085840085631866,13.764929869039467
93,3.1602677614677805,2.2269341193034045,1.1686470201904924,2543.9727881127155,2.6407088638129137,2.615173404512538,574.2987165855394,8.077947297013234,11.51057444302592
94,3.1200013903966006,2.355087391152786,0.9421806827154222,2542.6533750340736,2.05451918310537,2.598502915646248,396.2943530106987,5.536056761127484,10.18183572325632
95,3.099787303245713,1.9867332743033657,0.7165157666771874,2555.8700195739716,1.6133209515171956,2.481080697492227,413.17228328105693,5.848088266158752,8.657129885914843
96,3.032536332071169,1.9843842768899187,1.0496724702987825,2571.965663904035,1.713695450400169,2.6492438199787793,538.790647442572,5.625092301449808,7.842937119110908
97,2.987318142080252,1.7334023554797517,1.241101463362209,2343.1160948319384,1.8535962531702168,2.9764194571564873,516.6850920798274,4.1781490068141265,8.321509125567085
98,2.964568325761885,1.283536792241231,1.346462373425323,2181.6196908584616,1.4365243484766639,3.0445528018799073,489.2215364753462,7.431288112454946,6.84744600533658
99,2.9417685863907828,1.157967972022266,0.9784465410572398,2064.7422534108373,1.3652518848011663,2.9839080525010333,494.9915666459174,7.006643518843267,9.256803635542788
100,2.9044341091206314,1.833217508693465,0.8597082951433027,2041.5669083691707,1.6984501408717017,2.7964845805273923,671.971066326016,8.454388727838724,13.534555448476304
101,2.879459068881067,2.406212651622469,1.120409954940078,2102.203853857702,2.2474868192988664,3.166812909944082,707.2449099887493,7.787334732786591,11.946851206635683
102,2.840501774017653,3.2603808615863437,1.2792045249735189,2129.119136287038,1.9507276808696965,3.213246568590249,711.1516162414661,7.437538075100361,9.563356011962629
103,2.8127777060410555,3.489119482889427,1.2088245570374023,2155.710819439629,1.5489745753199333,3.1839795313389807,638.537768369966,10.740876831419872,9.969095996632667
104,2.784817132151856,3.4121160539359643,1.5849003677805438,2152.6105663340813,1.3835481733541377,3.265557826412286,619.665160865334,10.044435920177014,12.181063966510672
105,2.7427265610184968,3.1005486195011565,0.8462575716405418,2212.75170858401,1.1639408770035327,3.6652900665152357,645.1228778430982,6.242312386282257,10.378108377716117
106,2.7117133543835266,3.0324371278492213,0.950150268187351,2180.8637371905033,1.2033670233823073,3.7149163571705204,629.2988735075463,6.3287563816244585,12.17238083986456
107,2.68053568833356,3.418083395044275,0.7534015035728799,2165.251592997197,1.2665581239479295,3.552824509214158,609.7309848563903,6.316437327810777,15.708899341533568
108,2.6491942320886306,3.9638653102151293,0.9567777810956823,1995.024622481243,1.5589422011900633,3.638354956288765,639.7888581847419,6.204356314980406,15.029981329400597
109,2.614521529925911,3.6181160063662063,1.4087980895994598,1905.5734372291959,1.7362837883279085,3.6094063010741797,545.9398791074933,5.3821817788084205,15.688230010006777
110,2.5970701812222377,3.4572531010544028,1.3215558991463976,1897.4979765360556,1.8671514745311009,3.4728628052780146,472.214024506026,5.915435556500267,16.93867197121618
111,2.562131922884664,3.475103779920372,1.3141249643557213,1908.8857476197645,2.159376229300148,3.2913398332324633,321.6636815628893,8.475875736074313,17.086868780223423
112,2.526974675067546,3.072827501450981,0.8432212090249603,1894.2015343285207,2.320404018687459,3.4338286585943814,444.21073914588624,7.77884189339019,14.196003164918924
113,2.4916638430941767,2.871436800364247,1.011075012183451,1878.042293525578,2.1300810513418837,3.3872039064680224,543.7002526047592,9.200782444025327,12.124426538414776
114,2.452533894244416,1.987892746890586,0.9754907734786732,2021.410349264137,1.4787785473485768,2.8968876583674668,531.1329863197091,8.59438995269434,11.257028617418646
115,2.432923249867974,1.9906114822819785,0.8810582542439418,2051.234217005815,1.4288249980131804,2.866524386878994,458.5037291984513,9.63538706404004,11.6954742957132
116,2.3934185607529006,2.280914003115463,0.7472976996654046,2067.627713495579,1.038957117459694,2.8130948928840507,584.3840255997912,10.163514718995621,9.253442168831686
