,Lookback,All,DM,Gas,Disk,Z,VZ,density
0,7.641375389072152,88.47920982288983,74.05745835710884,14.42175146578099,119.43776572308708,0.09016017077282698,11.566645347909294,0.03715627322225533
1,7.596713167865263,69.92869423407048,47.55298913437771,22.375705099692766,142.81785596373157,0.11462417570717251,11.524582041871286,0.025371760509902294
2,7.566683618057125,98.33411691690611,75.3987726985386,22.93534421836751,120.2103836575449,0.11576847568173565,10.770430963856146,0.029189858118859865
3,7.53339063655954,126.92674562834044,101.8214358678805,25.105309760459946,140.43172789444557,0.11875016353686321,10.988523152323499,0.027094312836634826
4,7.482979561017268,119.72800992549357,96.7292183437743,22.998791581719257,131.16437606999102,0.10953247437621344,10.830580787413249,0.0302913861047883
5,7.445622694073074,130.93943404683333,100.18639381022626,30.75304023660707,126.56711148243356,0.11886520531491881,11.657326858094965,0.02313693890043129
6,7.388982983834753,89.04249396650005,68.66148419885488,20.381009767645168,146.12662779995657,0.12766613079209116,11.283257999607022,0.01704966253383371
7,7.368028485131425,114.48522778968216,69.6708680044167,44.81435978526545,148.93041055139847,0.13327624885533934,11.0488275835149,0.015122179321134521
8,7.32581407574925,80.00638870131445,53.90786455153971,26.098524149774743,151.88856586902895,0.13657466323544568,11.244387881401153,0.01064313485739929
9,7.304554308275986,121.75176901236222,98.92025811826655,22.831510894095665,150.0480505691434,0.1364093345064729,11.250188639463863,0.019000769636356402
10,7.271496275648464,102.44712931469532,83.26699281278047,19.180136501914845,148.6247540505266,0.1278414224352416,11.320150254107379,0.02176057761428203
11,7.236227198877431,68.92092182309143,50.23939981262565,18.68152201046578,144.50491717366225,0.12207878553327345,10.943119776389485,0.017413202163910298
12,7.19831221169613,87.82525153405325,72.90289264036707,14.922358893686182,123.50056814696924,0.12039358957558657,9.913182969002738,0.015246263364482924
13,7.152681385740628,122.21173332764955,96.05739384103066,26.15433948661889,81.30921380899085,0.1158412289606319,10.529745633675494,0.02527428549387465
14,7.099260464270884,100.26149755568042,80.9435283817527,19.31796917392773,109.28111140761429,0.11729218721436625,11.007673622151225,0.024735579404296378
15,7.075557727315488,129.33925714302296,88.27471523451113,41.06454190851182,104.73523421824845,0.11887644148593782,10.941399147903887,0.019746620520527666
16,7.039764478602527,162.84881388197115,136.68672173612677,26.162092145844372,114.90698891042173,0.12462024176045022,10.502432343392824,0.027258829579919226
17,6.986751233784402,146.14340453918885,122.70927324411942,23.434131295069445,140.46545649780222,0.13041587057586598,9.649441808750064,0.01687934708170876
18,6.943909723553674,75.21676362219061,58.861314341080245,16.35544928111037,144.68281621595705,0.12384777122062104,8.406837405727167,0.0181362140958738
19,6.8992999999999975,102.70618332034414,90.15341890936112,12.552764410983016,120.87638271658037,0.10471536672488349,8.679711903787712,0.02532686268568787
20,6.866292168543732,113.63673938290515,80.5641703302808,33.072569052624345,124.13004114546732,0.09760709736609863,8.75574652894747,0.02127588504310798
21,6.816364909661479,125.79004263057605,106.71869359603186,19.0713490345442,122.4490963095626,0.09778716034580845,9.262693920233641,0.025086775350660163
22,6.779399361578653,99.18760943970818,62.01665507979857,37.17095435990962,104.08488520726314,0.10629498899380599,9.78464167723192,0.016901034360686573
23,6.742137004320504,141.11397796800134,111.47210148851602,29.641876479485322,108.75561628403415,0.11116220373550001,8.924962210788113,0.03440396984448169
24,6.7130773554740495,167.05517028225728,136.89374510307795,30.161425179179343,99.8554907359366,0.1082480514612943,9.069805346629032,0.026663194950725888
25,6.66005882533,159.7031351000749,126.68390006213302,33.01923503794186,117.62768821203032,0.10848593215581089,8.743163925137935,0.026078365054821306
26,6.613862820712693,105.53068256144562,71.66049040247232,33.8701921589733,85.8767005713647,0.11156526180678283,8.432573476161595,0.022025869144473346
27,6.573229915265312,138.74036930860444,107.46543628731737,31.27493302128706,134.40938933186936,0.09987857471482481,8.236904852350813,0.01476439644220319
28,6.539376586173443,111.38394233563808,77.34111146411674,34.042830871521346,105.2186254024366,0.09016452793911381,7.59728449810611,0.0309153366323532
29,6.489295405186351,115.53767993245947,73.06894450386437,42.468735428595096,103.89797357034819,0.0820136751660119,7.569899382978495,0.018997534774425794
30,6.462779928727577,130.88255007765392,92.1870566752451,38.69549340240881,113.41908989437522,0.08780987817230101,7.585713454695792,0.015507561237415642
31,6.420803680733952,132.02169316998467,104.2594443090814,27.76224886090326,89.13914081636719,0.08524021040359106,7.304156293523724,0.019319994120615715
32,6.3912357509248015,99.53048605561145,74.73904977619415,24.7914362794173,110.93237763947157,0.09033276452942188,6.977644194801645,0.014880912490006636
33,6.360037918593159,154.88778742015774,127.20020474131779,27.687582678839952,103.55603810610569,0.095668919179877,7.3346483958857345,0.020613958310804936
34,6.323181769898123,108.55342852712688,86.67426206082008,21.879166466306796,123.1885766503221,0.10970468776515516,7.178170426174746,0.018698147619058962
35,6.296819541234349,152.01811651465817,127.76122448645971,24.256892028198457,130.26541326228786,0.1130118445759026,6.823661902084911,0.046658235709012744
36,6.257021370782392,119.4854555131089,89.27155273626978,30.21390277683912,112.60351607882252,0.11926670494774358,6.458377825976369,0.048579129721971794
37,6.198067183682968,122.96047108405665,97.94164424588574,25.018826838170916,145.96245890586854,0.11591987258123748,7.135825227762846,0.08312772230427914
38,6.166826674452982,131.641967491586,99.29670216007878,32.34526533150722,121.93016543769149,0.11413693958757384,6.819386796032205,0.09081722330094712
39,6.133891202463207,150.11694685326432,132.94907148967027,17.16787536359405,105.69574443850003,0.10448202152923164,6.996106002593447,0.0659243413640778
40,6.100719280344513,115.66300047176415,96.26307515962664,19.399925312137505,109.68449342544695,0.10129639113524366,6.650899916154889,0.06294804265630394
41,6.067346103953526,91.64486985792986,71.58850999666369,20.056359861266174,115.87550419201274,0.09154860683262185,7.0042062514946775,0.09065475717996808
42,6.032072868913223,114.41874918355818,95.35772067316059,19.061028510397595,85.75349440420355,0.08558357808837261,6.601962382164793,0.09352345402967177
43,5.9948320266449295,98.62106679960823,68.97833892581679,29.64272787379145,71.85220089175448,0.07475748160851464,6.6006621164662675,0.08940690765376041
44,5.957324003606695,95.88889082626574,68.13355902908555,27.755331797180187,89.41399018683896,0.07009168780978797,5.270818935289708,0.10577409091028615
45,5.9365639909968575,119.65341475615497,95.65377175067503,23.99964300547994,86.2437373456714,0.06801482683673153,4.93979186599269,0.09316359962386024
46,5.894811696137233,134.68479202126338,104.078947957197,30.605844064066385,63.12732736682362,0.06372721594691606,3.913568575520183,0.039773433065949305
47,5.85272746861963,96.28221329919393,66.18759549286271,30.094617806331218,74.82423631385889,0.06783475467050407,3.9466830090647576,0.0516506275147041
48,5.829423163299706,83.4619436134871,67.05372549369973,16.408218119787367,61.85803039795168,0.06351591670038173,4.586032673799063,0.07590271616880861
49,5.806019824366869,80.90199129394983,58.121906785988514,22.78008450796132,59.416348770338814,0.06877126584074877,4.562507904417746,0.07788279820369357
50,5.758847580686567,85.70734746457923,70.21396756029061,15.493379904288622,77.48866201681386,0.06729011181424291,5.029042465451158,0.09295434213271314
51,5.735113676933862,90.23185079008687,74.79488558534385,15.436965204743025,77.4243520959827,0.0651920505573565,5.060205715309544,0.08791267727040585
52,5.687351268637958,84.39208631457717,63.62631099567925,20.76577531889793,77.62775960128891,0.06355471675997884,4.053089446706317,0.09112486611534085
53,5.674282004200253,128.0234768722558,107.58796268956029,20.435514182695513,84.7541615052886,0.060802318055841804,3.777512894522208,0.08872681158553297
54,5.63487750476342,98.46476110924456,77.87014549986647,20.59461560937809,64.45437458761947,0.05628673845904235,2.8717512238366965,0.06767792836854676
55,5.607096887071627,90.55056330725535,78.44257319118141,12.107990116073934,67.78544516878549,0.05272184198047977,2.9522318652323163,0.0538743295171439
56,5.563197273837341,90.72605592713015,84.6908500312798,6.035205895850349,37.32290761526856,0.049049355936263285,3.368389345617565,0.03567693214528049
57,5.532228479342441,63.157815324768904,43.42611101818496,19.73170430658394,49.36956914348486,0.0470200651995686,3.6691206435745216,0.08148545872974344
58,5.499580009312712,82.54147664524298,66.82739775171652,15.714078893526468,44.36545877513084,0.045753591648631756,3.6854052848661145,0.10884111922846113
59,5.4667717357004335,107.78715727864119,76.34322347334538,31.44393380529581,69.70075989646965,0.04963306348270311,3.596058620504821,0.10379316676220394
60,5.432045810452904,95.26025057298126,70.18920741179859,25.071043161182672,50.47076002494551,0.046753823659204385,3.2993980998019277,0.07828712588229705
61,5.395473989249358,50.60206665282851,26.51074870808023,24.091317944748283,56.47349897405838,0.04631874136373751,2.567685313783726,0.09836926985262621
62,5.377073878453867,67.72817896827658,44.02510797343054,23.703070994846033,53.26194526913197,0.04369710443934547,2.2417610512423405,0.09662488090942262
63,5.338220697323426,93.69631792577243,75.90696427793867,17.789353647833757,47.80166927673013,0.041626242560612564,2.5316715242735746,0.08948842609202302
64,5.297253698952362,102.86123600323259,91.28155244459948,11.579683558633109,54.398703440085136,0.05092386747344808,3.408371320705591,0.036077251531125176
65,5.276641111204341,85.77928279063181,73.7210063252538,12.058276465378011,72.50294046350972,0.056419637677941836,3.8718305305292136,0.04790786951797802
66,5.235158502612744,120.63175922715223,97.64757048454895,22.984188742603273,69.44052491039358,0.06693091219391747,4.4109580046596815,0.062397788022695355
67,5.214323161439596,111.75320441223685,80.09293676294558,31.660267649291267,84.5399873861833,0.06212474130109347,4.77778194396175,0.05594415215977287
68,5.170266337889607,63.867179136042395,47.51565893984905,16.351520196193352,66.38891610351759,0.0684010792758921,4.747675201082611,0.055653862905678114
69,5.147046563163453,79.05944913030648,62.94855710430896,16.110892025997515,94.92796412180948,0.06653832451869637,4.403050197242987,0.04156433510291793
70,5.100322315894825,53.848348354610394,33.55190120308275,20.29644715152764,69.83935214019519,0.06402247909880436,3.995321396005215,0.07895018769938975
71,5.076783952863184,56.799029431437425,45.42572936850849,11.373300062928932,58.30603470329454,0.0533146903559495,3.8908311483630675,0.06900931962575196
72,5.024693916499314,40.50856771810904,27.36193500811556,13.146632709993481,86.96854504068124,0.0429518712602965,3.584270010881443,0.08100000402805393
73,4.9984422681030605,65.19607783167919,46.022780804631026,19.173297027048164,54.32026123106055,0.03790865527098118,3.0505878885936517,0.06350903504900104
74,4.972098961617661,102.26692124966296,80.39636066498478,21.870560584678177,55.10648809326575,0.036853348632485364,2.356949472246294,0.03971215258034309
75,4.945595796763422,70.49199106020271,45.3319970227435,25.159994037459203,85.05830628894793,0.026942370704150932,2.8165423243409466,0.04180292977354119
76,4.892248159980066,57.65074608729194,29.33158788252343,28.319158204768513,47.436744608296245,0.0282335044015684,2.8511726853027484,0.04527126475971871
77,4.862669314823597,87.28421525892878,61.296612980723125,25.98760227820566,49.013601155891365,0.029219368000738148,2.7964412192354695,0.05100959908401204
78,4.8487228759760965,77.931290924036,53.07953026765604,24.85176065637997,51.790531074129866,0.026570054686747432,2.82952369936173,0.04658762548905861
79,4.806664730570148,91.92380714473528,75.00336964574032,16.920437498994954,41.697195947047994,0.030757797259621425,2.796888456414038,0.03478116740441649
80,4.778461168590125,54.658021451766174,35.86779571989234,18.790225731873832,43.07448150327236,0.02982102548396413,2.6236377921184943,0.02995557324474102
81,4.720187077902779,110.77498026379305,85.7144329996766,25.060547264116448,58.92941134516752,0.03370036266356872,1.9690706834843184,0.05019077007106035
82,4.622237616993765,53.5785542661059,43.671768994347055,9.906785271758844,44.31050875910227,0.027254444494839256,2.7037140759717726,0.06124690330122674
83,4.577088592204344,83.578882775054,63.00841949956803,20.570463275485967,35.965447975703114,0.02922679030069237,2.514294878999369,0.025735382342087942
84,4.5521323230353365,67.15618121348943,55.69007418768299,11.466107025806446,45.784224379338205,0.03177031338437189,2.476253424638835,0.02820590516930712
85,4.501814915026364,117.42770836172846,98.69094397370652,18.736764388021946,31.744793578600653,0.024100341684597376,2.392841548576982,0.06963410142948295
86,4.48942163564651,52.046719687857326,32.85205634069692,19.194663347160407,47.03712522345916,0.025887633099551253,1.7937331555833351,0.054538540488635254
87,4.451988877090199,74.56394583046324,51.90115700384311,22.662788826620126,41.182625032416645,0.023212635314543793,1.47715367282726,0.0403996102481924
88,4.425636673797183,66.87607772171705,45.181450716921184,21.69462700479587,43.49028456439751,0.02668253976286538,1.7273271671730148,0.05936936023236428
89,4.384017668022734,76.85073200630393,56.13923298136193,20.711499024942004,27.978082103765388,0.036240688073809216,2.1910508453258317,0.027800455966224782
90,4.356077168016793,85.35716193262132,56.98312735557094,28.374034577050374,47.76855247298335,0.045944712614277586,2.3871248337345614,0.029739352417375048
91,4.328017673411098,48.293294651318064,28.390584659271816,19.902709992046244,72.49647404446053,0.04651478972431333,2.598414347405437,0.03838274896764667
92,4.282832647088027,88.01662195527595,63.55624797998584,24.46037397529011,40.42739155907178,0.037233355931945995,3.076123951675582,0.03860569610312772
93,4.251573740401522,108.75817032794194,71.44395744290952,37.314212885032426,34.00021230245253,0.03672540574218925,3.0728609019590984,0.041377879964742854
94,4.218546832503941,102.21504378733366,56.53797163993648,45.67707214739718,38.625434968634686,0.0329801618351969,2.99893654173174,0.05022542003151871
95,4.1837560100917885,86.28504871769576,41.10166900563577,45.18337971205998,27.67639247601935,0.032424584891771156,1.762649604098023,0.04159372173590119
96,4.166252624258076,102.17450322207897,55.74748150683901,46.42702171523996,28.859084995299245,0.026070223303020827,1.4067682955534893,0.050445226464111446
97,4.129379642199092,95.34665985144315,51.34365491514794,44.003004936295206,43.56152927391235,0.013470202022463088,1.340276892826859,0.07589182945739005
98,4.090517576788267,92.06256901790825,56.94330166405886,35.11926735384939,35.97354412811375,0.022272677741186936,1.855754601599274,0.08796442169275011
99,4.051387253346471,92.05209307335375,57.18063246721829,34.87146060613545,27.050438530540887,0.03170838602233247,2.289254853212295,0.10526138390727104
100,4.031717654255528,96.0258434682978,56.920480033598196,39.1053634346996,40.77990014507196,0.03286419284422843,2.3158581535451694,0.09987630953698723
101,3.9921703326700086,97.5582142791782,61.98793275798395,35.57028152119425,34.93548115837605,0.034382522526546624,2.808685549076024,0.07374786460477284
102,3.9703123977296446,98.51254930910326,65.21823863992675,33.29431066917652,46.37482550640245,0.03925103923078665,2.7538166341868924,0.050776541112067454
103,3.9263621640915054,74.97052961287835,35.51753323853638,39.45299637434197,33.085211260256884,0.04311283672104438,3.318407465856817,0.027842521500463558
104,3.904236747925157,67.6855953107813,37.70673854582611,29.978856764955182,38.62718030733365,0.04227203593408555,2.936243105694836,0.06492787126132434
105,3.8597869359163535,75.935103149463,39.40070073695049,36.53440241251252,50.804540078022725,0.048131580434619195,3.12508067799457,0.0916253268553862
106,3.837429450196413,69.1325322868189,36.17757567211774,32.95495661470117,33.27807499607831,0.04532260046442291,2.9702016451923576,0.10656987428405765
107,3.79021115421336,77.79276055548445,38.061131404176194,39.73162915130826,33.83019508610833,0.028437549113170053,1.8249564404665628,0.11021369606429791
108,3.765320039697933,103.33188789675248,59.031867123845764,44.30002077290671,34.983773676828484,0.023265051064945717,2.001144892687373,0.10712481171450955
109,3.7403442402838434,66.10379945496365,31.114554312775454,34.9892451421882,27.077037270359185,0.022421994943655182,1.7987798369107062,0.08965289737283778
110,3.6900396490094094,71.17760276653243,46.00176825047196,25.175834516060466,41.48099478002569,0.02971770704824559,2.5922454739864773,0.05545462076247759
111,3.6647448434540313,60.60925951331954,38.24153766027345,22.36772185304609,54.73617370195799,0.036849837786473834,2.8619361023186896,0.03695309183008147
112,3.6393332294665535,77.49548419841844,53.8668651567758,23.628619041642633,46.24736852988615,0.042209338535347286,3.524394493005138,0.05157899767277866
113,3.611243287317557,122.86443347134778,92.66858758441279,30.19584588693499,69.13792827350359,0.05453434365550683,3.9410652879264525,0.08277184531485228
114,3.5830408109660965,87.56095053712873,67.84391807177774,19.717032465351,54.56701079013245,0.05654114150992895,4.335654452546814,0.10909236169447191
115,3.5406764130714983,84.26163064414231,58.6429936344203,25.61863700972202,57.26534900841252,0.051678015122207835,4.611153962940264,0.13227393211931185
116,3.5122938050100214,73.87648914368485,53.5010086555856,20.375480488099253,55.51658639666087,0.05399652059775899,4.12142661993424,0.12130784461406541
117,3.480915262767496,69.61440233990739,52.33458384829551,17.279818491611877,45.05182755657943,0.04678368928370848,3.6508273256180703,0.10672241906340724
118,3.4493642568072502,86.75288618395382,69.43877924592319,17.31410693803064,56.93175434445392,0.04905824501780523,3.5118925222864554,0.059587507799023616
119,3.4176414378115427,93.28088531928624,64.84052181287846,28.440363506407778,46.93860292147315,0.044192852821698804,3.30617821294609,0.05590320940854438
120,3.384160105599035,106.14188625970344,75.4912656571433,30.65062060256014,29.388748388075587,0.052268035495623956,3.819068213362014,0.0451122497510936
121,3.3488592409068514,120.36789770381398,92.25204128651107,28.1158564173029,42.327840508267556,0.05213010710078087,3.9313732161003814,0.05503413452299051
122,3.313394622547607,117.50799204772028,88.30078974485302,29.207202302867262,66.24182894394657,0.05797322206627377,4.680085516405218,0.04095124499201611
123,3.2955764075645178,85.86158319777552,60.14948793650382,25.712095261271703,32.47694832273122,0.060267498370129714,4.899992340458994,0.03587124220441788
124,3.2597687795980548,107.50723428067695,84.56021898248382,22.947015298193133,29.177376909279484,0.06410728829281848,5.343019786675175,0.07127322189186996
125,3.220194766662841,87.48717967461593,60.186880795620255,27.30029887899568,57.48983345923727,0.0672612152332201,5.442328187329717,0.07068155032735343
126,3.2002516129970497,99.7215676898077,72.29554574309827,27.426021946709422,68.55972588227351,0.06756319314246652,4.698770005884933,0.07228599093558391
127,3.1602677614677805,117.81920728371873,93.1765616525317,24.64264563118702,51.09640974553741,0.0593478631616559,3.454693252018279,0.04289182097357563
128,3.1200013903966006,97.84509791080825,79.56014605703872,18.284951853769524,58.184059732132404,0.03647510945005057,2.660191775089354,0.05072223900167446
129,3.099787303245713,102.41927298026714,75.55585232051598,26.863420659751153,61.78908785211132,0.039587582775095574,2.296038777837505,0.05370101349311492
