,Lookback,Z,VZ,Bending,Breathing,density,BendingM2,BreathingM2,densityM2,DM,Gas,DM_out,DM_inner
0,6.323181769898123,0.15394926387962599,6.380048639184961,5.606190166836813,0.6301407730847013,662.8472448922416,2.616286128417811,4.151713410614933,624.9417962009155,18.889756497713716,45.17544231711014,14.944310507564548,214.8353027480793
1,6.296819541234349,0.18337234495664773,5.828968132804895,5.272879242973933,1.2646697436375927,604.3057839533819,2.5612845093865673,4.271830852181759,476.040022599047,20.553194514419424,40.11662494617049,14.433377176843097,192.42595242864155
2,6.257021370782392,0.1999341963070626,4.465839748144684,4.111470214147724,1.6395706273958264,557.2412044837547,2.233896632655878,4.515844879493924,443.5152853511912,21.12259636809273,41.483655839766534,11.29777614118463,254.04492337593044
3,6.198067183682968,0.1961622810073659,5.35906456924549,5.0738352969234395,1.0359696877533744,404.5394146091631,2.166165045477891,4.5872406424001655,336.2113503357095,21.87638589952027,37.99312243237186,11.320614969710338,332.5034352831655
4,6.166826674452982,0.18900795612194773,5.973402921872261,5.689437880291622,1.123685206234398,507.44673621156505,2.9751009916546804,4.733490754388444,455.19676375953225,30.78589570427113,40.205022572814244,9.459479103110066,332.1088349236033
5,6.133891202463207,0.20311638552295985,5.708849740840709,5.335379704737521,1.5320729004557305,294.82142487877456,2.722569331119238,4.598920883075666,517.9343191019456,26.784097215453958,40.40746748357172,6.99410226764699,309.35755422841777
6,6.100719280344513,0.19737359373490926,5.783943439369823,5.625952701221824,1.0541769320259722,474.2896616871136,3.7293372442202624,4.378693561775043,544.1399304187369,25.06816965982129,33.9695911933256,6.6591873034434235,218.1028749539039
7,6.067346103953526,0.17572608576850252,5.70458584911586,5.483824096876141,0.5323395935796117,641.8360607107533,4.978276598115606,3.7367265237868126,378.23591306488726,26.96732382454644,54.000216805972485,7.9217339277058025,214.07210475091094
8,6.032072868913223,0.21560124499935146,4.770371636166263,4.771337601102739,0.9340359073457508,924.5410617849782,4.060152433734109,3.5415995103162374,347.97813387138405,23.911870784878207,54.38874684803253,7.109851550458047,244.06162577303152
9,5.9948320266449295,0.19316412383735057,5.552164152482248,5.3356246927102,0.9391496252536463,846.0741482747757,2.7455152656169446,2.7921947968995116,440.2568143872575,24.192557384515588,51.674411281856166,8.90822613180013,180.71631805446592
10,5.957324003606695,0.16002598858035322,5.577012611507405,5.119750681603338,0.9240318246022514,824.3480066222619,1.5707166066817346,2.518265200499674,386.8827882448967,22.320153696446912,50.87025893300719,8.740537974902546,128.17267601697867
11,5.9365639909968575,0.1772140566806814,5.324673789046188,4.93567523816396,1.079753309777781,693.297903565129,1.5765935675693048,2.1919270167511593,282.20938245883156,20.91771419203834,48.65659050311234,8.446211018545615,190.44411678180944
12,5.894811696137233,0.2343847905202036,4.606126048259311,4.605742806096323,0.9405421578796892,507.21621086820176,2.304490323931483,2.35512407641768,237.95863449857947,18.476214421720435,50.193890344567755,7.619366451892218,147.97702112826704
13,5.85272746861963,0.2133294445214518,4.389382823153052,4.296952986236318,1.06598852121445,469.46417519774167,3.8209057325908686,2.934751083500231,364.73649631902833,13.327067064715633,30.527600981308733,6.307330589823531,225.1112415727015
14,5.829423163299706,0.18670853987208608,5.145105536055587,4.975314537030944,0.9389557125247519,379.1760274021743,3.903437728030711,2.7321203958001363,304.55610985875126,13.297446529202283,40.11651171239356,5.466040259382204,159.52627585509788
15,5.806019824366869,0.16878635294585237,5.410694512573077,5.194482024367315,0.7858214783773313,452.26636220935717,3.439351207606907,2.6511291487161617,353.4788212010628,13.050949480845324,47.811516804584116,4.6111528598363,134.06453032304063
16,5.758847580686567,0.18388702633452642,4.311147573852605,4.1679175368431745,0.7383590141779408,618.1498398269584,2.996132109117029,3.3581225035444966,325.2556157268494,13.965654591946272,58.53616915140199,4.853603622624884,134.5165826223028
17,5.735113676933862,0.17138967929386623,3.921900340637081,3.8784611494160695,1.161887105592141,770.4885915583484,3.5166316969587177,3.7574185628976124,279.87491848680935,11.31844737821269,49.422625175870465,4.233069819907155,289.3632279620362
18,5.687351268637958,0.15904498064438782,4.285057115233604,4.066009979415202,0.8849559485470551,830.9466237518379,3.834832059693503,3.6465927294313842,257.5747765210908,10.391284408048595,48.877819825223874,5.495713704266304,91.33857947101289
19,5.674282004200253,0.1602888087280602,4.432706698412399,4.277823877299362,1.2493593736817412,795.8010645473387,3.754152596449555,3.994285733444935,371.3830777460493,9.884549531907203,52.593014048246985,4.670032149021999,207.8691378218676
20,5.63487750476342,0.1488618996311408,4.9096287492392925,4.625111078354812,0.8859627392386937,752.683604451557,3.1109303437892777,4.108495721929025,258.93422349972957,13.966220786717535,45.664145721466745,5.125901460174688,186.11104490705657
21,5.607096887071627,0.1711491132599319,4.787715847578321,4.609614341080387,1.015720284873735,692.5627901741706,2.681188067698474,4.344851591391595,288.76251311686354,9.79863952281823,55.65619327465806,6.9761748520525195,232.5391056684251
22,5.563197273837341,0.17192146816257173,3.091862604566842,2.919948588809319,0.9449662852494363,506.95355711646664,2.7468760191746204,4.181675901740694,218.8694318837187,11.368432665147244,48.85173901123974,6.065729178656597,181.14002685666946
23,5.532228479342441,0.12527227601715693,3.5210387560081977,3.346507357681201,1.0979946908783036,566.0879413090086,2.307170282716805,4.547737075731125,380.49014357691203,11.757109441734443,36.09807279976626,5.7309406331031125,159.36658437618945
24,5.499580009312712,0.09573561677682926,3.966512972996066,3.6549738794215805,0.9820351178781707,587.6791674716793,2.76326675102679,4.1339870181113225,542.441934234285,13.120856759705545,36.07804455373522,6.045461766412485,99.02924737114866
25,5.4667717357004335,0.11003054788789675,4.292366594731207,3.8282567322936716,0.9904584347682179,683.4351066385449,2.5932737523687828,4.38379701517343,334.4561051348775,9.07475416281928,44.86967027266871,4.940279876082393,111.56042003808393
26,5.432045810452904,0.15747083850123578,3.7587831300853223,3.4280076515877544,1.0057859241648142,642.2450878731777,1.9293448176836108,4.417848087919346,330.1714055029377,11.559896424100799,53.81839467702219,6.02105156541431,130.26145901210364
27,5.395473989249358,0.14803431181196985,3.252728812742602,2.9136529143684746,0.37786115305597995,751.340518317584,1.976465482662762,4.225186372731517,275.2402334331888,12.27945870687503,40.17932631297189,6.384126803783556,195.2814861603817
28,5.377073878453867,0.12122734957210723,3.4944307808688135,3.0888504489007724,0.4405982962331721,618.9247374943204,2.1946710725065786,4.451827931016043,287.8382367025452,8.934364036490942,38.76258851051898,5.723554862570863,196.4353361154412
29,5.338220697323426,0.11703463825008462,3.48560031252016,3.1181997330032893,0.5273338988226874,548.4720121413188,2.165695103457419,4.414032450675718,521.179944394587,6.270206856600063,36.43859964169696,5.454162817003908,92.91149062363394
30,5.297253698952362,0.12008375050338804,3.5660317832551045,3.3802624285627965,0.9054872022732973,482.32149154224925,2.585659448585795,4.299862498978013,345.3593283046165,9.35432548000172,31.37384807221588,5.478739329339705,163.7057790604906
31,5.276641111204341,0.0877845961380227,3.089154193668434,3.0555617594007365,1.0815766851463287,596.3657172543352,2.6215365109814868,4.3986419885596515,355.76017464613585,8.620417898110498,40.10497882912268,5.653019521966807,216.20512492169416
32,5.235158502612744,0.08009281601414062,3.2315222852397296,3.1648409313063866,1.0501695715190789,499.1135293340318,2.376292654636007,4.439004077689535,621.8759628819676,8.418503336721022,47.64515832561592,5.477197917472301,156.71886349052852
33,5.214323161439596,0.08876507861140763,3.5240267756961883,3.19571574348853,0.8218966267562747,513.6921426771975,2.3894684394250776,3.9437349956286383,434.9957186928803,5.68073495276344,46.69577380085606,5.13509866917711,126.6381098237221
34,5.170266337889607,0.10852690170000956,3.5247533654225776,3.2667825087346216,1.2546588917631394,462.53288268415645,2.4269924284645064,4.287705884532846,499.1682849954328,4.632524322608728,50.4112154585433,3.955468180036967,104.2625363979153
35,5.147046563163453,0.10396761909728287,3.2773736133878457,2.948211275998619,1.0937837827913517,459.08436901978564,2.7877007352129257,3.9535485072945358,394.79734266726774,6.428740902301585,48.9304110481274,6.226534542978113,117.98382144086085
36,5.100322315894825,0.06668007720439591,3.2158415943764624,3.1511634766817145,0.5359262774114368,549.7489709535198,2.9681649227224165,4.330850010127273,273.86360853425987,15.435379018617343,59.6744332847449,3.521672520730903,103.92611490567434
37,5.076783952863184,0.09384670071733939,3.2756471900460213,3.073132871787906,0.8154707349899626,517.8104712745118,3.034667807157831,3.939632563029998,272.1734626853402,14.22107001116715,53.09300468145753,4.2305982387320675,94.42903042967606
38,5.024693916499314,0.1011382125289001,2.7727127598329835,2.4735383028221287,0.7440552456171492,580.5604712253818,3.00525974250143,4.206252582697549,422.20189066658133,13.342806249563935,68.13422998715917,5.874889334804612,126.33896758211999
39,4.9984422681030605,0.09021415811169278,2.3907838091323854,1.9564574568056947,0.7931085224099801,557.9579279732918,2.882666821051937,4.263205757085872,238.80301045596335,8.15153175756438,66.3948008028417,5.230315126191464,127.00287885887958
40,4.972098961617661,0.07489398718562283,2.860063921481406,2.5010385265888964,0.7847364079457877,503.15775485349593,2.817204918860567,4.133793276381849,246.21421123151418,9.86404769540716,57.333292531422195,7.420007185534715,154.71190710085222
41,4.945595796763422,0.06484592349229161,3.099025732567182,2.7724699956950998,0.790219136084532,467.2546328698055,2.49740013446753,4.151123391409802,321.6761131376053,16.426239564438063,50.25392016810158,5.604578084259765,129.14981546612876
42,4.892248159980066,0.0697585792696028,2.722092630782892,2.6547598191119763,1.178170683906101,417.27885980429164,1.9630267727405795,4.2126089033330985,314.20252474990525,7.945965392356801,51.015059873633405,3.4787858786584915,94.35321269967363
43,4.862669314823597,0.08547254126568843,2.734753047746474,2.7423055368573506,0.9945336633907023,361.89986576335184,2.0302502647370195,4.269016498807511,364.953090066518,9.457373165660899,49.657513057832716,4.368322169643262,254.93048645545002
44,4.8487228759760965,0.09379560512297379,2.4048700978901913,2.484837754286673,1.0332995995768957,436.4979295309762,2.3412369057531537,4.377593835530083,241.9710041394372,7.468019319837011,50.05231698829288,3.9628991213048463,114.9847874800867
45,4.806664730570148,0.08526362334490309,2.530046480278654,2.4914182644560077,0.8492604893500495,516.158371568076,3.183057929542657,3.8886034863960277,252.80472293548587,11.374409620997941,43.52838423772077,3.227390183557831,180.48849553109727
46,4.778461168590125,0.0716850408758268,2.6831804106896966,2.5164818356291163,0.7238791370987777,550.4614288276034,2.7529661683250466,4.137123466498321,379.87582299762016,10.727173918271086,40.61958597921694,4.818871492406893,80.66455773888659
47,4.720187077902779,0.07535943856747682,1.7969464067956142,1.857524318905892,0.9480792190852757,564.3794825988853,3.1451170584114156,3.983446950033642,192.11323627159493,9.827246361021052,36.899071088095226,4.951517256050747,130.7237889517872
48,4.622237616993765,0.03951363437066175,1.597129110589862,1.3307918162594194,1.0438089849597687,974.0927534470378,1.263003236861472,3.574819366769911,285.78410784111685,7.8815739689445765,31.941547123825114,3.2107275007674065,36.074136162931076
49,4.577088592204344,0.07159204096312495,1.8904491123975613,1.7753054905625902,1.099689078530109,597.6033044438494,1.1747822731996878,3.3963019279995015,445.58013724487535,8.420989228171859,37.929788141075136,4.131956610920248,168.42725660056874
50,4.5521323230353365,0.09599516566263688,1.984140053199253,1.8351049859982844,1.1116404390157357,424.1334538860594,1.2361404454617222,3.52692416243399,426.4113167708905,13.590338424867573,46.060535983762946,5.178665606081211,133.54205117412437
51,4.501814915026364,0.06709486357203612,1.8126927955286667,1.605838756174935,0.9854858943207688,232.11321698004812,1.3995940208277422,3.685714068337038,315.9766217258615,14.086856754705844,37.351289214393375,7.381394528915475,86.84530710479386
52,4.48942163564651,0.06483875685662709,1.5705960165508408,1.461967937082692,0.9565448833091127,322.53955099712545,1.2394187872744187,3.698369666233398,236.8577529744644,15.507811218702512,37.63680282133569,6.830299040018211,85.14955734783823
53,4.451988877090199,0.059588703472550984,1.7481569896262985,1.527533804556065,0.893939593799338,470.36342207742473,1.8963092445441814,4.2814462604108305,241.8978429610442,11.70396844982046,31.281855529826704,9.529343911046531,85.10227588252025
54,4.425636673797183,0.060128047411457594,1.4999460138733285,1.4375871704200025,1.2962741657251677,556.4544213689254,1.8278881157992743,4.679212385830152,355.6860054120779,17.742989310643452,34.53794508584737,8.234549325409688,123.55344561146143
55,4.384017668022734,0.05654440197023195,1.3393205332540334,1.2863950064715495,1.2411725628177743,723.7333760671485,1.922249708855297,4.602108501752911,443.89714664676677,10.413681054477872,44.625066999627094,7.592385907559235,117.96609358603015
56,4.356077168016793,0.059023408795795484,0.865897767526475,0.8052309843159285,0.7856920026299011,839.6695462183958,1.4650854626317706,4.851450132037827,245.69501339272225,19.55876838761171,45.36675496420142,8.5638820625616,75.73213098475905
57,4.328017673411098,0.06263801787691228,1.0238643689942328,0.8792428013088444,0.858154843720204,727.0493184488603,1.8783186613583918,4.652184950403194,232.61155701497032,26.92624940723559,51.785808928513795,8.410688561086932,132.09342551325418
58,4.282832647088027,0.04817747630913407,1.3827907708467415,1.2596529518387158,1.1256819541834333,516.3989910866817,1.36754597468884,5.055341259183135,485.120396974554,11.597627484950632,54.23462168247099,7.87380222151805,152.55942196842824
59,4.251573740401522,0.041357049927121345,1.2833273660720783,1.1895083848820533,0.5006791293230889,434.03931976192143,1.3085904515262978,5.090064414065731,530.1492791564253,10.354202789808353,39.75993822126427,8.110926716171846,152.5572579828984
60,4.218546832503941,0.05490005976406864,0.96041262435918,0.814972835664691,0.8698085362432095,386.6668310123483,1.2884004649159686,5.210832488760611,552.630007607518,14.028305602475173,37.21592148819523,7.918495972713835,78.56071168054078
61,4.1837560100917885,0.05676973338234979,1.347463170444568,1.287981708780835,0.9195091230813934,530.4201528930544,0.8205607039246752,5.188561909938167,504.62792862183625,9.860412397196018,34.64392091196655,8.637931240998283,80.23289613813017
62,4.166252624258076,0.04998282251723658,1.4808846189341687,1.3731876665069318,0.9733506413686477,569.7692839873054,0.8080487223657526,5.188032115698576,562.9731693041537,19.49596073485636,27.25225278319742,10.065680960159385,151.71511036905983
63,4.129379642199092,0.05269357660427017,1.6385091452254432,1.6333806612819135,0.57112062447174,863.5461135490405,1.1218632571370406,5.257321743502806,299.54713210852816,16.001052340821115,22.05385434615085,11.408851392454386,187.3238938392783
64,4.090517576788267,0.07162344266882269,0.9388386855668026,1.0161031276811996,1.182170319913015,1072.367356577767,1.1803531046344573,5.5044986255447705,232.41073315476282,17.07917867586871,41.91006740043236,17.33997692408024,91.65073871008892
65,4.051387253346471,0.06327466399294261,1.2709331828443513,1.0041518156183684,1.167656763235294,977.7443024983746,1.7215949354193192,5.436129695929887,378.72237128815254,14.629011511397508,62.51740883848149,13.351584682757304,69.35410242249398
66,4.031717654255528,0.057696242124498844,1.320547783435284,1.1628951847605797,0.9114472697509802,936.0730385012214,1.827843123265215,5.382992676791595,292.1909805453326,15.917375024586066,65.39255035503913,11.72737631615732,211.6894268598126
67,3.9921703326700086,0.04694964261595881,1.4168975203246572,1.2857432565421387,0.813779206716285,873.2723586708893,1.6133301747552706,5.128115667881902,402.6150882395549,7.960938734482949,42.793103837412865,9.545106903425856,79.85417606879525
68,3.9703123977296446,0.05064693190472484,1.2918328666842362,1.3825997773365186,0.8636802656727713,701.2592781845055,1.8501413038876664,4.936376264806973,432.2163130642647,10.567019170951038,38.43127926339049,9.796531978052585,130.43856458469298
69,3.9263621640915054,0.049864969225873135,0.8296644776452826,0.7643151112224069,0.9604369912321978,502.67143118985894,1.0212784594779922,4.435318584723758,228.5161578582582,15.35979701492999,45.06006367120016,10.837608364911699,190.4894860592786
70,3.904236747925157,0.04371159474645424,0.937566683031623,0.7610673709868319,1.1316636779654476,676.6137839701305,1.374009434957011,4.552658931317794,285.5294618251314,16.129552343895433,50.55819494386625,9.898635898560942,50.85357076419334
71,3.8597869359163535,0.040518909515141144,1.1680792675635723,1.1178647733360463,1.085344333234636,955.4069200592269,1.3639713308540489,4.048805785182973,434.25788248875017,17.050736935854275,49.702464218573176,9.039127492004797,101.3434650249265
72,3.837429450196413,0.04156488485116515,1.2695597117785573,1.1160614456848184,1.2729497968403423,1057.66883391474,1.2763684746013488,3.794435872768773,436.38966615003403,15.553691953362208,53.87948090593444,9.167073608297947,82.3910295401093
73,3.79021115421336,0.04889152923242641,1.3533386411807529,1.1939176961300544,0.6072383996130807,1304.6946937845491,1.6363111211589438,3.508948811156009,353.6968417641096,8.489035847974758,61.74341264530947,9.584510253459058,130.78268982937468
74,3.765320039697933,0.06657201643483575,1.3216222010800704,1.1971373471890465,0.6713482670871185,1289.9616886956733,1.715288431582671,3.2099559053436337,361.9019868892925,10.980450973160929,58.24195123646754,9.547293506630064,113.28510730971006
75,3.7403442402838434,0.06886624841770723,1.2977016195216395,1.033781641939767,0.8709764877073181,1221.0490529680444,2.1197011342960934,3.2395987038173706,273.0573830536926,10.196621349764264,59.35352079425911,9.900598723384125,68.89319743048232
76,3.6900396490094094,0.0421095929352465,1.1101497034887573,1.0837095323539427,0.7278770932930929,1082.187322978952,2.0377193081659293,3.331042375359677,289.980522929885,22.999694107789658,58.24745494769846,9.325241915928205,129.63203001902076
77,3.6647448434540313,0.05134321632885487,0.8768226472934355,0.8855673913039309,0.8116469996761081,962.1898686084012,1.8188570541134603,3.2275292672238414,264.0447557901991,12.075206204356954,55.58646998597005,7.537673392081355,94.35896521075166
78,3.6393332294665535,0.054176037417599146,1.0319986379719939,0.9461196170666204,0.8294827523794923,1066.7009071434309,1.896317861876303,3.2704410845932896,332.08941572784005,13.258849326723425,49.08939644485444,6.608072503203315,142.96258084149957
79,3.611243287317557,0.05490590795297885,1.2318654719561555,1.11686055361046,0.9872733040480817,1088.677478066032,1.8931259707851815,3.1719299543251416,358.671151972397,16.15126481747946,48.84085992825564,7.988831268795475,106.55589127885685
80,3.5830408109660965,0.04593742849717054,0.9792248209696239,0.9864487096276855,1.0174100831453927,1191.3116924423362,1.8709834665529734,3.1471573801775334,457.1833334030795,18.65296510350494,58.594428111940005,8.47516080118985,135.48267474682427
